depth(m) lower_95(kyr) lower_68(kyr) median(kyr) mean(kyr) upper_68(kyr) upper_95(kyr)
0.005000 0.900122 2.258157 3.411203 3.339718 4.351225 5.619019
0.012500 1.006867 2.480383 3.556136 3.497812 4.493134 5.795447
0.017500 1.144215 2.575225 3.663029 3.600241 4.580294 5.864225
0.022500 1.254832 2.673962 3.766240 3.704617 4.674515 5.957182
0.027500 1.380761 2.761343 3.867151 3.805785 4.752806 6.048806
0.032500 1.583668 2.889919 3.939454 3.910692 4.855660 6.115072
0.037500 1.746539 3.000769 4.044912 4.015735 4.927705 6.184551
0.042500 1.870116 3.108108 4.149776 4.119520 5.015312 6.229241
0.047500 1.961762 3.224166 4.244865 4.222929 5.104557 6.375061
0.052500 2.047305 3.316590 4.330884 4.324834 5.188572 6.515400
0.057500 2.189506 3.406458 4.442866 4.428099 5.269137 6.605812
0.062500 2.338173 3.499168 4.543526 4.529895 5.370813 6.665624
0.067500 2.483411 3.581497 4.647838 4.633819 5.454509 6.804811
0.072500 2.617176 3.720843 4.761830 4.739080 5.574266 6.853390
0.077500 2.737315 3.854912 4.848523 4.842470 5.684326 6.915739
0.085000 2.909770 4.069419 5.038465 5.015656 5.832075 7.050459
0.092500 3.149898 4.247516 5.224282 5.182850 6.104685 7.147998
0.097500 3.254298 4.353487 5.330961 5.289313 6.230840 7.220144
0.102500 3.395780 4.481722 5.467360 5.400837 6.338250 7.305503
0.105000 3.458695 4.523623 5.528711 5.457856 6.395233 7.358600
0.107500 3.513852 4.578392 5.589015 5.518562 6.467675 7.414383
0.112500 3.691570 4.725861 5.743672 5.673565 6.637293 7.510812
0.117500 3.822006 4.861098 5.857249 5.824210 6.785342 7.706731
0.122500 3.982196 5.028202 5.996846 5.980588 6.986786 7.868520
0.127500 4.135106 5.195741 6.137745 6.146003 7.130973 8.000084
0.132500 4.299593 5.367370 6.301831 6.312287 7.331666 8.143276
0.137500 4.486051 5.538693 6.460071 6.481708 7.495602 8.317085
0.142500 4.639946 5.678329 6.652277 6.665392 7.730499 8.532362
0.147500 4.821859 5.852292 6.846112 6.851881 7.891101 8.759910
0.152500 5.034835 6.073667 7.067781 7.045231 8.070208 8.977621
0.157500 5.264347 6.230887 7.267954 7.238268 8.255327 9.155316
0.165000 5.517664 6.545995 7.723347 7.642334 8.688818 9.524291
0.172500 5.786974 6.808684 8.110138 8.010250 9.037879 9.902235
0.177500 5.933267 6.960708 8.282188 8.182629 9.257220 10.134862
0.182500 6.114249 7.139044 8.470285 8.355755 9.423462 10.308371
0.187500 6.278764 7.316875 8.628254 8.517252 9.602229 10.473359
0.192500 6.425961 7.473189 8.811328 8.681559 9.733223 10.589449
0.202500 7.114076 8.072577 9.222775 9.135975 10.094465 10.992250
0.207500 7.408227 8.243238 9.419891 9.319955 10.263451 11.154554
0.222500 8.817955 9.752283 10.474773 10.427833 11.102636 11.690208
0.232500 9.629942 10.400928 11.027929 10.988726 11.602762 12.076809
0.237500 9.865895 10.615353 11.213980 11.181992 11.763474 12.245446
0.245000 10.158610 10.984713 11.528246 11.484482 12.013089 12.460865
0.252500 10.518877 11.300815 11.848593 11.784687 12.245476 12.731903
0.257500 10.754055 11.490014 11.999565 11.937663 12.383195 12.871961
0.262500 10.897979 11.628653 12.133335 12.076690 12.503843 12.988966
0.267500 11.130316 11.784830 12.282771 12.221243 12.631829 13.096164
0.272500 11.292334 11.942209 12.414112 12.355724 12.766232 13.252620
0.277500 11.466884 12.097230 12.514077 12.473860 12.881623 13.344980
0.282500 11.644781 12.220025 12.604919 12.581590 12.989485 13.440422
0.287500 11.787194 12.354023 12.688817 12.688328 13.074258 13.531721
0.292500 11.874777 12.472353 12.778779 12.784621 13.145131 13.610485
0.297500 11.994430 12.574590 12.871187 12.883060 13.254285 13.689296
0.302500 12.082959 12.683667 12.961703 12.975045 13.362889 13.780611
0.307500 12.165995 12.784580 13.044587 13.061013 13.454057 13.851567
0.312500 12.253497 12.875873 13.123214 13.145435 13.532102 13.926272
0.317500 12.335371 12.951828 13.199356 13.225267 13.619335 14.005262
0.325000 12.459849 13.053837 13.309744 13.338370 13.731594 14.093806
0.332500 12.572122 13.166564 13.419646 13.445435 13.824795 14.199842
0.337500 12.647322 13.233812 13.494562 13.518931 13.913331 14.268440
0.342500 12.725040 13.301893 13.563852 13.592217 13.996999 14.324771
0.347500 12.817799 13.363711 13.639905 13.664360 14.066734 14.385657
0.352500 12.890904 13.434742 13.721333 13.737011 14.133065 14.466203
0.357500 12.948176 13.501725 13.797382 13.806792 14.198048 14.531542
0.362500 13.012549 13.574656 13.872766 13.880203 14.273363 14.602696
0.367500 13.092142 13.633725 13.941104 13.953254 14.344712 14.678630
0.372500 13.163544 13.708437 14.029778 14.029552 14.410362 14.761453
0.377500 13.237800 13.780674 14.112206 14.105477 14.490000 14.847732
0.382500 13.321414 13.849385 14.183230 14.179371 14.561666 14.917888
0.387500 13.392265 13.926708 14.253033 14.250958 14.630052 14.992422
0.392500 13.452287 13.999379 14.328053 14.324097 14.704060 15.070696
0.397500 13.545716 14.069777 14.396682 14.397565 14.760349 15.142062
0.405000 13.664395 14.166777 14.488038 14.494894 14.856287 15.232777
0.412500 13.843109 14.266619 14.585865 14.596504 14.963816 15.351950
0.417500 13.934193 14.337605 14.659193 14.667641 15.027183 15.432059
0.422500 14.061359 14.411731 14.730362 14.743969 15.096676 15.494020
0.427500 14.167976 14.497264 14.808988 14.829447 15.178657 15.575589
0.432500 14.290466 14.595711 14.899602 14.922561 15.263828 15.649189
0.437500 14.414564 14.685135 14.997438 15.016841 15.348612 15.732265
0.442500 14.507842 14.772593 15.091960 15.107353 15.437059 15.836335
0.447500 14.597164 14.859016 15.182743 15.198991 15.524928 15.967313
0.452500 14.684262 14.968433 15.277570 15.296497 15.642694 16.052610
0.457500 14.777902 15.056524 15.356853 15.391178 15.733338 16.151485
0.462500 14.908465 15.170016 15.473911 15.507802 15.851309 16.241719
0.467500 14.995370 15.292348 15.579225 15.616437 15.950696 16.346314
0.472500 15.073783 15.396617 15.688888 15.718347 16.063355 16.446058
0.477500 15.205904 15.500400 15.783647 15.815327 16.160711 16.540514
0.485000 15.338200 15.624754 15.907181 15.942765 16.281160 16.681713
0.492500 15.503582 15.757849 16.041982 16.078783 16.414341 16.838353
0.497500 15.574545 15.843101 16.135705 16.170084 16.515461 16.954549
0.502500 15.654985 15.919133 16.230946 16.262251 16.614900 17.039784
0.522500 15.917765 16.162521 16.502660 16.579806 16.993462 17.667801
0.527500 15.995620 16.241850 16.586654 16.668602 17.096440 17.776588
0.532500 16.080764 16.317877 16.671677 16.761003 17.208036 17.887441
0.537500 16.152304 16.397261 16.774571 16.856415 17.309674 17.997964
0.542500 16.232453 16.481584 16.860593 16.948972 17.408278 18.111862
0.547500 16.303653 16.548574 16.955434 17.036150 17.508319 18.190400
0.552500 16.375813 16.622408 17.045888 17.123950 17.607424 18.323269
0.557500 16.445373 16.689034 17.137011 17.207794 17.706031 18.390627
0.565000 16.536358 16.803424 17.286837 17.336570 17.849822 18.563700
0.572500 16.620371 16.896878 17.445317 17.467492 17.984255 18.680514
0.582500 16.736595 17.033414 17.651180 17.640426 18.144143 18.862631
0.587500 16.799990 17.109840 17.732950 17.726597 18.234471 18.955240
0.592500 16.872270 17.189626 17.819101 17.814786 18.343915 19.051261
0.597500 16.928956 17.267785 17.904987 17.904557 18.424588 19.135476
0.602500 16.990797 17.358845 18.006187 17.994278 18.525656 19.199774
0.607500 17.062002 17.446635 18.098675 18.087044 18.635332 19.272874
0.612500 17.132971 17.539068 18.188072 18.177535 18.744148 19.357712
0.617500 17.202123 17.626001 18.273532 18.267651 18.832708 19.468496
0.622500 17.294984 17.695710 18.355507 18.356838 18.920278 19.543527
0.627500 17.373266 17.795580 18.462694 18.453538 19.015569 19.623566
0.632500 17.457407 17.896429 18.567511 18.548121 19.110750 19.719906
0.637500 17.528411 17.983322 18.665451 18.643826 19.223253 19.810661
0.645000 17.671437 18.127970 18.804119 18.780228 19.353991 19.921110
0.725000 18.910562 19.449760 19.978266 19.963047 20.463700 20.963376
0.805000 20.321166 20.704304 21.105317 21.106305 21.514547 21.920856
0.885000 21.119318 21.652475 22.148406 22.195132 22.726764 23.598439
0.965000 22.010743 22.555066 23.149091 23.233815 23.937214 24.879302
1.045000 22.912333 23.550599 24.259572 24.299478 25.023773 25.932162
1.125000 23.863419 24.584689 25.304101 25.382071 26.185515 27.339844
1.205000 24.915936 25.632006 26.464268 26.543790 27.394097 28.647902
1.285000 26.140680 26.835735 27.769537 27.899073 28.944790 30.514727
1.365000 27.063221 27.984891 29.022904 29.192690 30.453707 32.177746
1.445000 28.101940 29.127147 30.365559 30.520773 31.799195 33.891680
1.525000 29.437003 30.332267 31.585070 31.906069 33.147774 37.007094
1.605000 30.509687 31.621522 32.897378 33.486457 34.897308 40.693243
1.685000 31.779802 32.937491 34.206832 35.194307 38.316198 42.199191
1.765000 32.966284 34.195766 35.788422 36.911585 40.874803 44.216117
1.845000 34.195748 35.460714 37.459867 38.616242 42.775651 46.143191
1.925000 35.335497 36.848734 39.442145 40.511658 44.553616 48.404667
2.005000 36.460154 38.486413 42.271114 42.543055 46.562091 50.150122
2.085000 37.624984 39.920688 44.410438 44.518150 48.469274 51.720438
2.165000 39.015942 41.535459 46.272509 46.242562 50.255078 53.185755
2.245000 40.722962 43.652755 48.206850 48.010226 51.813595 54.627471
2.325000 42.573822 46.055574 50.158902 49.862111 53.405702 56.067572
2.405000 43.721542 47.848632 51.984437 51.493240 54.827281 57.550032
2.485000 45.118869 49.650428 53.492363 53.060878 56.449119 58.683850
2.565000 46.236603 51.264769 54.933509 54.568846 58.047280 59.842675
2.645000 47.406608 52.606253 56.420842 56.027266 59.455604 60.864398
2.725000 48.706218 54.399092 57.960831 57.503113 60.724853 61.835184
2.805000 50.232394 55.978815 59.843563 58.924214 61.767593 62.686874
2.885000 51.747434 57.530877 61.205204 60.244134 62.712138 63.492249
2.965000 53.731250 59.367220 62.164767 61.411634 63.541754 64.323884
3.045000 55.904614 60.828734 63.046677 62.477557 64.346676 65.179342
3.125000 58.431316 61.778963 63.875510 63.451034 65.124438 66.008377
3.205000 60.548392 62.903988 64.705432 64.404955 65.917229 66.834891
3.285000 61.889909 63.811837 65.503048 65.302085 66.747258 67.559584
3.365000 63.181357 64.629853 66.301808 66.141119 67.553247 68.595171
3.445000 64.272711 65.528189 67.107187 67.000657 68.438830 69.490655
3.525000 65.044264 66.373665 68.003529 67.905928 69.295074 70.616970
3.605000 66.169363 67.334811 68.980476 68.911527 70.376084 71.817867
3.685000 67.235832 68.389910 70.135237 70.105130 71.685832 73.228604
3.765000 68.331131 69.632296 71.629222 71.594713 73.487741 74.683777
3.845000 69.587461 71.516024 73.807904 73.826184 76.118059 78.141871
3.925000 71.665598 73.655841 76.680118 76.329710 78.749914 80.109876
4.005000 73.673266 76.449308 79.016945 78.626435 80.732838 81.812874
4.085000 75.562814 79.324514 81.299513 80.855238 82.433165 83.521713
4.165000 77.008623 81.217278 82.805392 82.483737 83.888302 84.896520
4.245000 80.267857 82.582916 83.838962 83.749184 84.993068 86.604501
4.325000 82.454146 84.016391 85.090240 85.051609 86.054514 87.789482
4.405000 83.791473 85.448073 86.334484 86.458501 87.466592 89.877633
4.485000 85.314610 86.815386 87.896395 88.263382 90.199577 91.719772
4.565000 86.551424 87.974539 90.189291 89.954321 91.844549 93.058281
4.645000 87.801920 89.609880 91.767043 91.436572 93.005418 94.296498
4.725000 89.434550 91.182121 92.984953 92.743545 94.218278 95.359969
4.805000 91.200313 92.677463 94.190582 94.035429 95.264625 96.445722
4.885000 92.838585 94.167399 95.487681 95.422188 96.584189 97.897915
4.965000 94.191207 95.629775 96.904401 96.967724 98.280312 99.894642
5.045000 95.590537 96.860312 98.297012 98.393379 99.928129 101.607818
5.125000 96.999346 98.285708 99.700954 99.860582 101.541722 103.266567
5.205000 98.336669 99.637453 101.275926 101.460996 103.258229 105.273771
5.285000 99.870554 101.240344 103.279539 103.360100 105.440873 107.526945
5.365000 101.576624 103.265943 105.728275 105.643978 107.747870 109.527598
5.445000 103.639294 105.946886 108.460926 108.276513 110.460710 111.965268
5.525000 105.484635 109.251633 111.519935 111.139519 113.007094 114.421358
5.605000 109.183185 113.186638 114.866149 114.800954 116.908990 118.129671
5.685000 116.843977 118.857853 120.160483 120.246041 121.752912 123.590531
5.765000 120.893621 122.290698 123.875739 123.925272 125.544013 126.810722
5.845000 123.235647 124.855692 126.461443 126.325114 127.704314 128.647563
5.925000 126.015241 127.742014 128.883134 128.697105 129.690513 130.401779
6.005000 129.553522 130.757269 131.565641 131.484830 132.218137 132.848750
