depth(m) lower_95(kyr) lower_68(kyr) median(kyr) mean(kyr) upper_68(kyr) upper_95(kyr)
0.010000 5.190834 5.452364 5.697541 5.705920 5.952020 6.208182
0.030000 5.451395 5.722663 5.983147 5.991297 6.263745 6.539625
0.040000 5.560907 5.848412 6.132885 6.127275 6.400901 6.677115
0.050000 5.693607 5.989500 6.268415 6.265258 6.540097 6.786486
0.070000 6.017051 6.316098 6.574570 6.568268 6.824358 7.047732
0.090000 6.438684 6.625230 6.868074 6.867417 7.098099 7.312949
0.110000 6.647874 6.869493 7.130205 7.147294 7.407466 7.757701
0.120000 6.731251 6.988052 7.265809 7.283059 7.563200 7.924613
0.130000 6.823427 7.107851 7.405353 7.423647 7.733111 8.133292
0.150000 7.072261 7.400769 7.742063 7.759779 8.121001 8.552332
0.160000 7.196735 7.534045 7.883699 7.909636 8.302894 8.718755
0.170000 7.324775 7.680521 8.045936 8.057532 8.448457 8.862431
0.190000 7.663496 8.055937 8.389257 8.400319 8.764574 9.119590
0.200000 7.817137 8.212609 8.538249 8.544669 8.907960 9.235378
0.210000 7.984855 8.361331 8.691415 8.688773 9.036269 9.339316
0.230000 8.399183 8.716393 8.992375 8.994225 9.289699 9.529542
0.240000 8.564760 8.875268 9.137602 9.134867 9.399409 9.645896
0.250000 8.752430 9.032765 9.270632 9.270708 9.499441 9.756029
0.260000 8.905052 9.166407 9.393832 9.391073 9.627752 9.851015
0.270000 9.039159 9.271262 9.489144 9.492712 9.724912 9.945101
0.290000 9.238630 9.451123 9.668189 9.672538 9.906749 10.096418
0.310000 9.399133 9.618681 9.843381 9.840940 10.066623 10.262371
0.320000 9.484274 9.708133 9.935280 9.929979 10.147158 10.359257
0.330000 9.584771 9.806758 10.035092 10.021891 10.228687 10.414797
0.350000 9.784834 9.980477 10.226746 10.205773 10.409924 10.590858
0.360000 9.877819 10.066161 10.312461 10.290939 10.496764 10.674427
0.370000 9.954710 10.155292 10.390464 10.370142 10.580936 10.743812
0.390000 10.093814 10.292142 10.527898 10.509040 10.716264 10.884117
0.410000 10.238312 10.429386 10.660806 10.646452 10.849793 11.014246
0.430000 10.392996 10.567154 10.795460 10.784407 10.985707 11.165407
0.440000 10.468193 10.644279 10.875084 10.861893 11.060174 11.242850
0.450000 10.542396 10.731024 10.958658 10.940667 11.136743 11.322717
0.470000 10.695787 10.886856 11.126821 11.106718 11.311284 11.512857
0.490000 10.861363 11.071541 11.297443 11.292985 11.518063 11.737357
0.510000 11.044470 11.251945 11.486993 11.486394 11.730002 11.945138
0.520000 11.133345 11.348701 11.581214 11.584293 11.826446 12.044532
0.530000 11.227978 11.455234 11.693743 11.692149 11.920950 12.159386
0.550000 11.454882 11.701609 11.938671 11.935237 12.163912 12.405527
0.570000 11.749742 12.027554 12.312396 12.307911 12.577691 12.900683
0.590000 12.094743 12.350303 12.655854 12.660449 12.947253 13.259650
0.600000 12.235773 12.519819 12.816618 12.814155 13.103990 13.389258
0.610000 12.399071 12.665389 12.967098 12.959895 13.239574 13.521361
0.630000 12.699352 12.952675 13.213300 13.219148 13.476594 13.787752
0.640000 12.833169 13.095213 13.339906 13.351658 13.618603 13.925934
0.650000 13.002591 13.247624 13.469961 13.496316 13.755822 14.053334
0.670000 13.317480 13.543778 13.854536 13.879891 14.218627 14.601558
0.690000 13.567755 13.858741 14.254505 14.248640 14.620212 14.965089
0.710000 13.827021 14.214726 14.592399 14.596900 14.979155 15.361766
0.720000 13.969499 14.382771 14.760108 14.760171 15.149296 15.533594
0.730000 14.151636 14.550221 14.931028 14.920110 15.292052 15.624011
0.750000 14.701635 15.033171 15.324021 15.330701 15.646171 15.950453
0.760000 14.858267 15.195913 15.500716 15.504889 15.815906 16.112223
0.770000 15.007867 15.374131 15.671747 15.671654 15.985341 16.302504
0.790000 15.401660 15.714920 16.039097 16.026795 16.328680 16.607672
0.800000 15.561666 15.873000 16.195681 16.177708 16.474436 16.752365
0.810000 15.723736 16.042892 16.342158 16.332927 16.619954 16.891361
0.830000 16.199839 16.421773 16.675346 16.669131 16.909026 17.134025
0.850000 16.475987 16.697373 16.917745 16.926790 17.176277 17.378057
0.860000 16.569341 16.809021 17.034464 17.041300 17.289946 17.492497
0.870000 16.676754 16.913268 17.143936 17.144372 17.389788 17.579768
0.890000 16.868368 17.072891 17.321558 17.321260 17.567238 17.755915
0.900000 16.951350 17.150998 17.415166 17.407143 17.648025 17.851729
0.910000 17.055348 17.239805 17.502786 17.494420 17.732025 17.930048
0.930000 17.210823 17.419334 17.660484 17.654043 17.892479 18.071290
0.940000 17.290038 17.499780 17.746782 17.737561 17.973982 18.142369
0.950000 17.361689 17.585079 17.836520 17.817991 18.055094 18.222408
0.970000 17.493245 17.737607 17.975958 17.966051 18.199725 18.376952
0.990000 17.667267 17.872184 18.119210 18.111768 18.333300 18.542312
1.010000 17.836909 18.014416 18.267920 18.257977 18.480877 18.735290
1.020000 17.902169 18.083140 18.342541 18.335192 18.559328 18.833997
1.030000 17.977604 18.158615 18.419744 18.415924 18.643216 18.918902
1.050000 18.131862 18.300316 18.568081 18.564908 18.794323 19.110190
1.060000 18.205912 18.380362 18.637013 18.642632 18.867681 19.213736
1.070000 18.287728 18.460295 18.709915 18.723753 18.954018 19.335850
1.090000 18.433124 18.606274 18.857498 18.876543 19.111001 19.506189
1.100000 18.516923 18.688753 18.937241 18.957873 19.191442 19.590921
1.110000 18.592771 18.764233 19.018659 19.039504 19.279045 19.674648
1.130000 18.740347 18.930444 19.172591 19.195788 19.456120 19.815785
1.140000 18.815932 19.016219 19.250045 19.279124 19.548739 19.894709
1.170000 18.986508 19.216538 19.479267 19.508320 19.820809 20.165865
1.190000 19.126267 19.376399 19.636830 19.669531 19.996136 20.372379
1.210000 19.280748 19.527866 19.795134 19.832337 20.167828 20.525999
1.220000 19.368934 19.623496 19.886261 19.922357 20.250401 20.610877
1.230000 19.439147 19.694398 19.973442 20.012643 20.356474 20.694543
1.250000 19.634275 19.884504 20.167350 20.194782 20.538285 20.860411
1.260000 19.720855 19.969627 20.264206 20.287865 20.628388 20.954846
1.270000 19.830460 20.068774 20.364182 20.384499 20.715888 21.035210
1.290000 19.999947 20.244480 20.570097 20.579957 20.907074 21.187626
1.300000 20.087643 20.352345 20.677707 20.678948 20.987476 21.302310
1.310000 20.176243 20.458877 20.801593 20.789063 21.094096 21.399358
1.330000 20.325251 20.660063 21.029424 21.013652 21.341357 21.670054
1.340000 20.413511 20.763749 21.145730 21.126459 21.468944 21.782759
1.350000 20.529453 20.874982 21.253957 21.244181 21.589313 21.926304
1.390000 20.915161 21.349186 21.731493 21.741497 22.141104 22.607233
1.410000 21.141760 21.612174 21.997931 22.000836 22.424616 22.832178
1.420000 21.266252 21.716256 22.104952 22.120091 22.543669 22.968857
1.430000 21.420732 21.831104 22.229542 22.237781 22.681094 23.075126
1.450000 21.689145 22.076157 22.482706 22.485490 22.910201 23.256736
1.460000 21.792963 22.199855 22.610681 22.603655 23.006922 23.342402
1.470000 21.952262 22.321328 22.719128 22.715814 23.097291 23.432654
1.510000 22.466770 22.820491 23.160828 23.146258 23.470128 23.787718
1.530000 22.739593 23.064012 23.377386 23.373916 23.672536 23.977051
1.540000 22.862582 23.193949 23.497147 23.485426 23.772957 24.079626
1.570000 23.233840 23.532453 23.830331 23.835604 24.152830 24.393199
1.590000 23.449094 23.754357 24.067047 24.071068 24.390337 24.638870
1.610000 23.696519 23.981798 24.319902 24.291925 24.594835 24.838703
1.620000 23.825148 24.089659 24.433308 24.403248 24.697798 24.919007
1.650000 24.150912 24.413725 24.744660 24.709794 24.959789 25.155483
1.660000 24.247296 24.526171 24.850061 24.807715 25.052185 25.239641
1.670000 24.342225 24.609514 24.937834 24.889897 25.130870 25.317594
1.690000 24.480459 24.770347 25.076205 25.033555 25.269620 25.443628
1.710000 24.629466 24.903474 25.218270 25.174065 25.409426 25.593342
1.720000 24.702547 24.981662 25.294796 25.250691 25.484333 25.662588
1.730000 24.780625 25.071076 25.362865 25.325006 25.557383 25.729709
1.750000 24.937819 25.236920 25.502203 25.468645 25.678233 25.861547
1.760000 25.026430 25.322894 25.583756 25.550242 25.754887 25.920666
1.770000 25.104870 25.412441 25.668367 25.641719 25.855490 26.019098
1.800000 25.326930 25.668739 25.924289 25.903773 26.128222 26.385417
1.810000 25.403838 25.749899 26.010433 25.997407 26.228276 26.571428
1.830000 25.569018 25.926588 26.170385 26.174568 26.401767 26.803774
1.840000 25.698372 26.017701 26.266004 26.267214 26.506921 26.877923
1.910000 26.235088 26.559634 26.811640 26.834611 27.107827 27.551372
1.920000 26.302783 26.647136 26.897542 26.929108 27.226074 27.649255
1.930000 26.407329 26.741418 26.997349 27.026150 27.331105 27.743733
1.950000 26.659432 26.922195 27.169667 27.208448 27.522800 27.922403
1.990000 27.015192 27.240286 27.480431 27.546296 27.893375 28.262467
2.000000 27.076916 27.318606 27.564102 27.629324 27.993565 28.369219
2.040000 27.293210 27.575403 27.841342 27.923902 28.360810 28.704556
2.050000 27.361384 27.648791 27.918211 28.005705 28.443239 28.785939
2.070000 27.511903 27.781131 28.067440 28.168094 28.636175 28.996377
2.090000 27.664543 27.919207 28.206029 28.329175 28.833049 29.207821
2.110000 27.795133 28.055951 28.366629 28.494232 29.038709 29.369179
2.120000 27.880347 28.133312 28.446340 28.581079 29.135701 29.484302
2.150000 28.102224 28.338479 28.691216 28.807443 29.377902 29.737846
2.160000 28.178846 28.414556 28.770228 28.892589 29.457418 29.829971
2.170000 28.277708 28.505792 28.881890 28.983245 29.541984 29.902718
2.190000 28.440593 28.656528 29.077190 29.151984 29.710570 30.074947
2.200000 28.524484 28.740505 29.175366 29.243209 29.806035 30.142744
2.210000 28.598945 28.827794 29.286338 29.334162 29.877465 30.230211
2.230000 28.782606 29.035724 29.477311 29.518123 30.026045 30.371792
2.240000 28.878387 29.138799 29.578049 29.613788 30.101124 30.445354
2.250000 28.976739 29.252855 29.677424 29.710058 30.169878 30.510837
2.290000 29.238460 29.617870 30.102061 30.075165 30.509797 30.842642
2.310000 29.359536 29.795132 30.299893 30.270506 30.687480 31.122711
2.320000 29.440638 29.880921 30.407213 30.367858 30.793277 31.233284
2.330000 29.551655 29.986663 30.502688 30.468383 30.880050 31.345173
2.350000 29.742517 30.193945 30.700370 30.664970 31.067859 31.598313
2.360000 29.839507 30.302573 30.791136 30.763808 31.178662 31.761890
2.370000 29.927539 30.413111 30.884837 30.864243 31.272406 31.865902
2.390000 30.109893 30.609093 31.070995 31.068352 31.510376 32.105166
2.410000 30.289570 30.807602 31.249992 31.285111 31.764617 32.485035
2.420000 30.368998 30.911108 31.339660 31.397174 31.893856 32.605556
2.430000 30.447666 31.014081 31.454410 31.508624 32.019375 32.774688
2.450000 30.657382 31.248456 31.675214 31.746327 32.321811 33.002543
2.460000 30.725090 31.354024 31.786200 31.860077 32.477051 33.152585
2.470000 30.849315 31.465093 31.889166 31.977301 32.598406 33.235233
2.490000 31.047409 31.665875 32.110774 32.221142 32.862953 33.541612
2.510000 31.215916 31.837382 32.372076 32.456126 33.162264 33.790363
2.520000 31.289280 31.925976 32.496244 32.565203 33.285993 33.895970
2.530000 31.366990 32.007695 32.632486 32.675962 33.414079 34.039043
2.550000 31.487794 32.174778 32.933543 32.940790 33.706411 34.546983
2.560000 31.565697 32.254993 33.042130 33.053601 33.820520 34.699770
2.570000 31.646487 32.336367 33.148350 33.164810 33.932539 34.817383
2.590000 31.799561 32.480889 33.397118 33.405693 34.190273 35.393824
2.610000 31.999805 32.628749 33.641459 33.644130 34.488684 35.918085
2.620000 32.069720 32.708274 33.738334 33.752026 34.587505 36.085915
2.630000 32.130832 32.815391 33.859332 33.858027 34.680849 36.168361
2.650000 32.267494 32.978803 34.083313 34.068669 34.937920 36.453407
2.670000 32.443636 33.164631 34.306646 34.284181 35.209487 36.760091
2.690000 32.675321 33.376204 34.526048 34.505878 35.430538 37.027402
