depth(m) lower_95(kyr) lower_68(kyr) median(kyr) mean(kyr) upper_68(kyr) upper_95(kyr)
0.010000 0.597065 0.777298 0.981877 0.996295 1.210051 1.481501
0.020000 0.692466 0.879781 1.087610 1.107230 1.339136 1.619104
0.060000 0.982129 1.208352 1.527778 1.611173 1.980504 2.920248
0.080000 1.109731 1.368624 1.737042 1.849338 2.305746 3.266445
0.100000 1.289607 1.561218 1.952873 2.084024 2.617260 3.510301
0.120000 1.439251 1.769371 2.172888 2.328017 2.937505 3.810538
0.160000 1.769713 2.151848 2.733345 2.831442 3.563022 4.327274
0.180000 1.909737 2.376680 2.974289 3.073289 3.859401 4.648470
0.200000 2.092674 2.579852 3.238801 3.317070 4.137693 4.843517
0.220000 2.305900 2.826001 3.502625 3.572073 4.362599 5.105908
0.260000 2.695970 3.337660 4.108735 4.104909 4.862880 5.409930
0.280000 2.935150 3.638564 4.380778 4.355424 5.093648 5.582358
0.300000 3.203915 3.908165 4.650101 4.616472 5.314879 5.745519
0.320000 3.519160 4.223814 4.926399 4.868852 5.515595 5.873833
0.360000 4.374380 4.933548 5.460335 5.417884 5.881549 6.151210
0.380000 4.775531 5.280255 5.731082 5.675920 6.056401 6.324138
0.400000 5.216289 5.578510 5.968851 5.923587 6.233854 6.483686
0.420000 5.655554 5.914883 6.189167 6.168416 6.405080 6.645386
0.435000 5.919508 6.139457 6.366502 6.358860 6.574049 6.782257
0.460000 6.165999 6.382785 6.615901 6.630807 6.875955 7.198945
0.480000 6.345408 6.571140 6.837713 6.864808 7.162264 7.555758
0.500000 6.517010 6.775361 7.071898 7.103903 7.430672 7.881806
0.520000 6.705200 6.986756 7.328459 7.361493 7.758562 8.215201
0.560000 7.116992 7.461788 7.892411 7.949313 8.422228 8.946505
0.580000 7.329488 7.709389 8.198155 8.219788 8.701598 9.265923
0.600000 7.517509 7.970725 8.442609 8.458759 8.979708 9.455821
0.620000 7.719613 8.166850 8.663553 8.686567 9.222482 9.698398
0.660000 8.123206 8.620376 9.163132 9.157594 9.686122 10.121864
0.680000 8.343840 8.857689 9.408680 9.405781 9.943778 10.365954
0.700000 8.585568 9.115860 9.676032 9.651482 10.161650 10.566933
0.720000 8.857078 9.406336 9.935003 9.896059 10.365253 10.731973
0.760000 9.465052 9.961518 10.426979 10.395678 10.819410 11.188756
0.780000 9.735633 10.223022 10.661459 10.632584 11.044323 11.419156
0.800000 9.978870 10.472066 10.901265 10.884377 11.307310 11.642761
0.820000 10.237678 10.743160 11.167917 11.141269 11.541648 11.865381
0.860000 11.043768 11.428681 11.752055 11.731666 12.025606 12.274042
0.880000 11.444839 11.739169 12.015622 12.000320 12.266609 12.472023
0.890000 11.583495 11.870255 12.125294 12.116800 12.372829 12.572564
0.900000 11.667194 11.961087 12.221349 12.216060 12.465006 12.693417
0.920000 11.859317 12.139662 12.397412 12.398454 12.676680 12.924808
0.960000 12.141444 12.422202 12.704073 12.722901 13.018823 13.352710
0.980000 12.299656 12.573735 12.885993 12.897685 13.204589 13.591252
1.000000 12.433031 12.737661 13.065839 13.077768 13.401876 13.844084
1.020000 12.593333 12.896697 13.240332 13.256731 13.605502 14.064035
1.060000 12.871882 13.196850 13.573405 13.598385 14.014512 14.480762
1.080000 13.014056 13.358294 13.771668 13.796224 14.240786 14.644002
1.100000 13.204857 13.526966 13.973981 13.998194 14.467808 14.907358
1.120000 13.366151 13.747837 14.189341 14.207964 14.669339 15.067903
1.160000 13.718200 14.138134 14.673120 14.649343 15.125454 15.545420
1.180000 13.921991 14.376172 14.905344 14.871852 15.349489 15.750831
1.200000 14.164715 14.601137 15.141598 15.098369 15.545917 15.925000
1.220000 14.402599 14.868943 15.363200 15.328588 15.766889 16.153398
1.260000 14.867138 15.330743 15.755808 15.731823 16.122116 16.469803
1.280000 15.103089 15.561293 15.943755 15.931387 16.290752 16.655379
1.300000 15.336895 15.786705 16.128467 16.114323 16.467475 16.828091
1.320000 15.576819 15.964845 16.299572 16.289689 16.616669 16.969053
1.360000 16.024854 16.349356 16.618791 16.621206 16.907792 17.213124
1.380000 16.295699 16.541441 16.798535 16.806771 17.076175 17.376391
1.390000 16.385949 16.638261 16.894258 16.898897 17.157288 17.448979
1.400000 16.494232 16.728718 16.989332 17.000905 17.279702 17.574364
1.420000 16.654818 16.898027 17.176333 17.204348 17.524287 17.897603
1.440000 16.793739 17.079906 17.392450 17.415532 17.758485 18.219628
1.460000 16.931230 17.252806 17.641485 17.653330 18.063395 18.461721
1.480000 17.078602 17.437698 17.897530 17.905095 18.367438 18.847571
1.500000 17.239858 17.620206 18.171533 18.147433 18.637859 19.068118
1.520000 17.372162 17.802505 18.424429 18.376502 18.898659 19.297738
1.540000 17.507441 17.951627 18.656451 18.591213 19.126056 19.484318
1.560000 17.658291 18.131390 18.878822 18.796726 19.337546 19.695869
1.580000 17.813988 18.298165 19.109471 18.993720 19.536823 19.894087
1.600000 17.961076 18.486227 19.307708 19.180218 19.710651 20.093090
1.620000 18.118944 18.709377 19.490801 19.364552 19.888211 20.270121
1.640000 18.270565 18.918030 19.682764 19.552285 20.070859 20.432249
1.660000 18.442752 19.163987 19.857811 19.732629 20.221373 20.569329
1.680000 18.613600 19.380585 20.015602 19.912737 20.377971 20.698716
1.700000 18.787258 19.643784 20.186547 20.088046 20.527300 20.835078
1.720000 18.981387 19.889103 20.345500 20.263237 20.679841 20.982199
1.740000 19.189311 20.073840 20.507846 20.432959 20.815962 21.114010
1.760000 19.455644 20.263485 20.664072 20.596979 20.966294 21.234688
1.780000 19.754209 20.449273 20.814073 20.765367 21.115384 21.379781
1.800000 20.043566 20.638937 20.967270 20.928888 21.256350 21.539612
1.820000 20.244858 20.813110 21.112654 21.092473 21.403075 21.677436
1.860000 20.877132 21.146313 21.414101 21.412771 21.687348 21.933093
1.880000 21.122045 21.329694 21.579174 21.583216 21.836434 22.071091
1.890000 21.216103 21.411074 21.671524 21.673134 21.935577 22.145886
1.900000 21.279982 21.487969 21.751336 21.755551 22.030898 22.241571
1.920000 21.417312 21.630746 21.907554 21.912685 22.195951 22.449274
1.940000 21.556923 21.758581 22.046733 22.061752 22.370865 22.670870
1.960000 21.685741 21.896547 22.195537 22.216975 22.531017 22.916104
1.980000 21.837589 22.019330 22.345958 22.376240 22.717171 23.179742
2.000000 21.965644 22.149605 22.489852 22.535802 22.888961 23.409607
2.020000 22.100236 22.273317 22.661035 22.702982 23.098668 23.622801
2.040000 22.225721 22.416401 22.828273 22.871835 23.296537 23.840058
2.080000 22.434515 22.678857 23.150527 23.189932 23.711034 24.198392
2.100000 22.571703 22.823870 23.329292 23.363657 23.922468 24.447036
2.120000 22.708394 22.967330 23.498835 23.531925 24.102852 24.615235
2.140000 22.840530 23.112435 23.679692 23.701285 24.280771 24.778350
2.160000 22.969140 23.267695 23.855064 23.873013 24.456658 24.940593
2.180000 23.109464 23.425399 24.031374 24.044782 24.643288 25.092541
2.200000 23.247098 23.593575 24.217470 24.218638 24.797377 25.254486
2.210000 23.318532 23.677946 24.307383 24.305235 24.885807 25.299812
2.250000 23.596938 24.008091 24.677068 24.640035 25.220967 25.601719
2.270000 23.743119 24.219935 24.857826 24.821549 25.391569 25.732569
2.290000 23.908870 24.402083 25.070827 25.001257 25.545349 25.885354
2.310000 24.058666 24.640190 25.251225 25.186705 25.693203 26.035529
2.330000 24.239792 24.864612 25.437140 25.376825 25.858082 26.166340
2.350000 24.488182 25.104593 25.617625 25.567487 26.019752 26.322839
2.370000 24.691377 25.338568 25.811339 25.753689 26.177058 26.449801
2.390000 24.950995 25.560607 26.004274 25.943640 26.335869 26.593647
2.410000 25.186337 25.782615 26.177195 26.135571 26.492255 26.749146
2.430000 25.446045 26.017967 26.366799 26.328787 26.661923 26.903240
2.450000 25.816451 26.237927 26.556907 26.522914 26.807127 27.027028
2.470000 26.186177 26.460130 26.748569 26.729698 26.966873 27.191320
2.490000 26.496993 26.736131 26.975304 26.951633 27.151521 27.369779
2.510000 26.629261 26.909577 27.172999 27.174736 27.429335 27.815311
2.530000 26.767902 27.075399 27.373822 27.414218 27.742003 28.292437
2.550000 26.925946 27.239355 27.576721 27.640364 28.064417 28.703110
2.570000 27.077075 27.390028 27.782104 27.872999 28.368726 29.095220
2.590000 27.225406 27.554282 27.997393 28.114995 28.775385 29.446139
2.610000 27.368444 27.710585 28.222060 28.350847 29.062559 29.834008
2.630000 27.496216 27.869993 28.453075 28.587166 29.379701 30.145467
2.650000 27.627995 28.025341 28.697994 28.810680 29.712509 30.346168
2.670000 27.764837 28.184318 28.932136 29.024796 29.978397 30.627313
2.690000 27.921096 28.342198 29.137995 29.228873 30.220338 30.831642
2.710000 28.044844 28.492820 29.379152 29.428868 30.411392 31.038392
2.730000 28.182632 28.650406 29.603050 29.622459 30.588319 31.266382
2.750000 28.342520 28.827520 29.826308 29.830508 30.823105 31.403169
2.770000 28.473624 28.999613 30.072495 30.035223 30.996885 31.660907
2.790000 28.665228 29.209238 30.278673 30.237882 31.204042 31.842536
2.810000 28.849854 29.388987 30.545708 30.456503 31.437727 32.080829
2.830000 29.020669 29.587370 30.747263 30.664998 31.660056 32.358483
2.850000 29.185216 29.793834 30.960720 30.881421 31.877883 32.537259
2.870000 29.384750 29.987229 31.173380 31.092250 32.091955 32.748960
2.890000 29.568523 30.214597 31.395927 31.310080 32.272441 32.960892
2.910000 29.782110 30.425712 31.612223 31.523997 32.470776 33.104262
2.930000 29.993841 30.701856 31.896252 31.754671 32.647055 33.295942
2.950000 30.191873 30.943640 32.113729 31.966912 32.834297 33.454466
2.970000 30.494787 31.222464 32.322425 32.179253 33.017806 33.611164
2.990000 30.755819 31.488902 32.539189 32.403231 33.183534 33.760835
3.010000 31.101907 31.783476 32.763558 32.627848 33.336659 33.888561
3.030000 31.451491 32.102520 32.951225 32.856757 33.502289 34.022014
3.050000 31.678506 32.401964 33.170881 33.070528 33.663850 34.169812
3.070000 32.004065 32.638122 33.360998 33.270290 33.812631 34.311238
3.090000 32.208429 32.876720 33.554229 33.472861 33.991688 34.453276
3.110000 32.462026 33.181444 33.727756 33.669914 34.137793 34.625016
3.130000 32.750142 33.409656 33.899521 33.853362 34.298159 34.758881
3.150000 32.984928 33.631107 34.058236 34.033914 34.447863 34.878077
3.170000 33.205991 33.838463 34.222306 34.204786 34.590743 35.043507
3.190000 33.386003 34.039965 34.376788 34.369240 34.733983 35.201970
3.210000 33.528463 34.171448 34.490103 34.494930 34.860766 35.313997
3.230000 33.664921 34.291339 34.613028 34.618137 34.983410 35.449068
3.250000 33.802081 34.420481 34.724195 34.738681 35.101449 35.545708
3.270000 33.952846 34.531718 34.835016 34.855569 35.220641 35.673447
3.290000 34.082094 34.650810 34.949369 34.976902 35.348675 35.795540
3.310000 34.209314 34.780023 35.068155 35.099299 35.464394 35.918733
3.330000 34.337933 34.895844 35.193976 35.223750 35.596985 36.079852
3.350000 34.459033 35.027854 35.325447 35.352789 35.720079 36.199045
3.370000 34.615444 35.154776 35.485394 35.518511 35.902789 36.521851
3.390000 34.778940 35.297988 35.642975 35.699747 36.114998 36.911985
3.410000 35.008139 35.433973 35.811305 35.897411 36.388122 37.371255
3.430000 35.158598 35.571704 35.970232 36.105978 36.648098 37.774393
3.450000 35.340775 35.724843 36.152962 36.322705 36.974766 38.138487
3.470000 35.506618 35.880486 36.341856 36.550837 37.275832 38.615087
3.490000 35.697380 36.043561 36.540522 36.789158 37.639807 39.060414
3.510000 35.826992 36.221597 36.777772 37.025981 37.944974 39.405385
3.530000 36.005750 36.390098 36.993637 37.265250 38.333226 39.706559
3.550000 36.169455 36.577812 37.247603 37.528055 38.623110 40.194976
3.570000 36.331939 36.766356 37.526377 37.785848 38.963152 40.474428
3.590000 36.502107 36.998140 37.789831 38.069102 39.275893 40.791063
3.610000 36.669435 37.244591 38.089215 38.365060 39.645757 41.094341
3.630000 36.860304 37.470437 38.432117 38.664496 39.999541 41.376739
3.650000 37.038053 37.741499 38.768558 38.976529 40.363792 41.797522
3.670000 37.244745 38.001127 39.141086 39.303333 40.720517 42.211294
3.690000 37.474660 38.310959 39.472249 39.638162 41.042785 42.454862
3.710000 37.686710 38.652323 39.873764 39.973410 41.358804 42.784638
3.730000 37.908773 38.972600 40.209538 40.303357 41.643897 43.112140
3.750000 38.247401 39.340699 40.521513 40.635540 41.961649 43.385401
3.770000 38.623717 39.724902 40.877474 40.988391 42.283795 43.668934
3.790000 38.927528 40.073788 41.232502 41.319007 42.642223 44.078929
3.810000 39.247138 40.436649 41.580177 41.642260 42.889531 44.302894
3.830000 39.677512 40.863100 41.919185 41.995605 43.175620 44.652783
3.850000 40.094623 41.262138 42.243907 42.358195 43.544607 44.863678
3.870000 40.507364 41.619378 42.621647 42.714629 43.915303 45.204681
3.890000 40.965144 42.006611 42.971295 43.048070 44.211347 45.372485
3.910000 41.360135 42.299945 43.274012 43.365680 44.498472 45.601125
3.930000 41.801400 42.604929 43.621702 43.671321 44.776478 45.778287
3.950000 42.187004 42.876449 43.954884 43.979108 45.029638 46.008804
3.970000 42.542689 43.175368 44.264977 44.284718 45.296876 46.295367
3.990000 42.818021 43.473978 44.577251 44.572444 45.611032 46.585198
4.010000 43.004999 43.730450 44.848723 44.842477 45.906136 46.826171
4.030000 43.215375 43.976296 45.111497 45.104763 46.181113 47.141621
4.050000 43.385482 44.198096 45.374954 45.371493 46.473882 47.485472
4.070000 43.510290 44.448274 45.636388 45.634602 46.747209 47.847597
4.090000 43.644347 44.676984 45.920783 45.908900 47.047440 48.292541
4.110000 43.817253 44.894594 46.119113 46.157149 47.320517 48.574418
4.130000 43.968430 45.102022 46.392065 46.408791 47.622678 49.012368
4.150000 44.128724 45.315655 46.696383 46.674912 47.918317 49.391730
4.170000 44.277415 45.531874 46.971520 46.936918 48.218318 49.971375
4.190000 44.432967 45.783453 47.239467 47.193913 48.514597 50.197432
4.210000 44.641083 45.997433 47.488646 47.438914 48.782203 50.461000
4.230000 44.815746 46.188635 47.737588 47.675403 49.033306 50.865251
4.250000 44.969633 46.377012 47.950213 47.900375 49.275808 51.079193
4.270000 45.156675 46.593673 48.168342 48.125711 49.553039 51.354898
4.290000 45.358291 46.767288 48.381959 48.344953 49.753908 51.556641
4.330000 45.667626 47.134888 48.817545 48.788762 50.256065 52.146114
