depth(m) lower_95(kyr) lower_68(kyr) median(kyr) mean(kyr) upper_68(kyr) upper_95(kyr)
0.000000 0.420586 1.649164 3.199267 3.005705 4.208829 5.109748
0.050000 0.904499 2.294908 3.702787 3.521253 4.675441 5.456606
0.110000 1.431969 2.969365 4.298427 4.103463 5.175567 5.844709
0.140000 1.791516 3.304382 4.566186 4.395417 5.435709 6.068405
0.170000 2.107305 3.673204 4.844166 4.690091 5.677203 6.339673
0.220000 2.673048 4.239035 5.302538 5.151523 6.059027 6.698145
0.250000 2.988695 4.545572 5.559847 5.421333 6.285036 6.944826
0.280000 3.324553 4.876672 5.818671 5.693738 6.519498 7.154368
0.320000 3.732314 5.227780 6.173964 6.042995 6.853251 7.421592
0.380000 4.403237 5.790382 6.640387 6.540105 7.282002 7.949436
0.410000 4.738826 6.068590 6.872504 6.790202 7.549225 8.177386
0.440000 5.106566 6.362743 7.107781 7.051963 7.790934 8.413554
0.470000 5.464431 6.686023 7.376893 7.324957 8.050584 8.642032
0.500000 5.969846 6.970922 7.647441 7.616023 8.299583 8.900784
0.530000 6.531431 7.302843 7.944014 7.938471 8.574985 9.205980
0.560000 7.096562 7.647772 8.275474 8.274879 8.885584 9.516376
0.590000 7.509943 7.997361 8.603940 8.603019 9.181930 9.764926
0.620000 7.900669 8.362865 8.947881 8.934885 9.472056 10.032105
0.650000 8.233189 8.709843 9.287192 9.255938 9.770724 10.276910
0.680000 8.672590 9.085308 9.610966 9.601070 10.106076 10.555856
0.710000 8.996758 9.460220 9.946223 9.931387 10.416308 10.835318
0.740000 9.346260 9.819880 10.258918 10.258292 10.710620 11.136473
0.770000 9.713438 10.178931 10.602522 10.607094 11.038113 11.453506
0.800000 10.177392 10.565351 10.996878 10.992988 11.424452 11.779118
0.830000 10.526248 10.931684 11.333529 11.326483 11.736838 12.112273
0.860000 10.878751 11.259909 11.667727 11.665002 12.056968 12.411707
0.890000 11.252598 11.644677 12.045410 12.029505 12.426210 12.767422
0.920000 11.667042 12.106439 12.454585 12.450147 12.801580 13.131798
0.950000 12.249564 12.540137 12.869066 12.861286 13.161262 13.527544
0.980000 12.665048 12.940360 13.210156 13.213682 13.479772 13.819198
1.000000 13.003576 13.227524 13.447330 13.467687 13.712108 13.987806
1.020000 13.295694 13.503104 13.816840 13.870801 14.259161 14.762741
1.050000 13.611148 13.975360 14.498602 14.557726 15.178030 15.770301
1.080000 13.971864 14.488319 15.141623 15.128349 15.746087 16.293370
1.110000 14.376844 14.956903 15.651624 15.601492 16.183690 16.670206
1.140000 14.761102 15.411535 16.117744 16.057860 16.644295 17.071101
1.170000 15.193121 15.916004 16.575930 16.528198 17.119029 17.556345
1.200000 15.623454 16.367064 16.947315 16.917123 17.503656 17.912450
1.230000 15.966080 16.704497 17.294797 17.247817 17.805893 18.218336
1.260000 16.297326 17.033555 17.581729 17.540781 18.084599 18.461710
1.290000 16.659579 17.324984 17.859045 17.819175 18.342131 18.700949
1.320000 16.986623 17.577654 18.111165 18.073906 18.575840 18.936745
1.350000 17.295282 17.850882 18.358531 18.323553 18.812007 19.157538
1.380000 17.509284 18.138207 18.616916 18.583230 19.040862 19.372654
1.410000 17.907219 18.451976 18.875778 18.848940 19.272118 19.586951
1.440000 18.282462 18.750752 19.127875 19.114151 19.487955 19.794120
1.470000 18.752679 19.061404 19.392297 19.387097 19.718605 20.009674
1.500000 19.125278 19.384710 19.668627 19.666615 19.945829 20.250717
1.520000 19.271475 19.573338 19.858106 19.877560 20.179000 20.531647
1.560000 19.608246 19.911698 20.281913 20.331284 20.745707 21.394334
1.590000 19.869316 20.176527 20.592668 20.680532 21.188727 21.966078
1.620000 20.121724 20.460000 20.936053 21.046779 21.657069 22.412184
1.650000 20.372235 20.777578 21.362655 21.459348 22.189549 22.944941
1.680000 20.631181 21.095860 21.763630 21.845450 22.647944 23.389841
1.710000 20.895458 21.444530 22.200146 22.246355 23.052094 23.710707
1.740000 21.253346 21.848693 22.638564 22.654526 23.468794 24.035833
1.770000 21.681409 22.272737 23.091269 23.058355 23.836918 24.374704
1.800000 22.029410 22.685234 23.503132 23.444367 24.152002 24.589661
1.830000 22.389096 23.053422 23.883650 23.798308 24.456266 24.869110
1.860000 22.747179 23.462253 24.239255 24.138838 24.753546 25.119993
1.890000 23.268959 23.928823 24.565830 24.496702 25.023332 25.407567
1.920000 23.785567 24.407652 24.893479 24.836421 25.267247 25.635367
1.950000 24.294873 24.795146 25.205740 25.164212 25.530787 25.829272
1.980000 24.850428 25.214270 25.505206 25.495230 25.774802 26.097228
1.985000 24.911649 25.268552 25.557951 25.547064 25.821132 26.150044
2.010000 25.137361 25.478319 25.783510 25.779972 26.078050 26.410232
2.040000 25.353015 25.699178 26.032139 26.042850 26.392175 26.706716
2.070000 25.600061 25.938789 26.299693 26.307152 26.681150 27.065492
2.100000 25.811690 26.159669 26.540276 26.570656 26.950558 27.555279
2.130000 26.037041 26.413820 26.817363 26.853062 27.296390 27.960074
2.160000 26.232967 26.652195 27.089545 27.139948 27.634600 28.359661
2.190000 26.519651 26.930162 27.406269 27.451384 27.991374 28.707207
2.220000 26.753813 27.192080 27.740479 27.775764 28.386041 29.006702
2.250000 26.975415 27.510775 28.084751 28.099102 28.725433 29.311983
2.280000 27.273547 27.815142 28.467538 28.450759 29.072629 29.555822
2.310000 27.595175 28.157698 28.861891 28.810797 29.424811 29.830295
2.340000 27.963100 28.540510 29.274125 29.187556 29.761557 30.112535
2.370000 28.275096 28.994149 29.653999 29.551211 30.089371 30.381694
2.380000 28.427761 29.130287 29.755084 29.663974 30.179153 30.477251
2.400000 28.697381 29.366906 29.961903 29.872368 30.335362 30.626922
2.430000 29.143527 29.763779 30.240785 30.166696 30.557384 30.810814
2.460000 29.672320 30.116025 30.503177 30.451830 30.769460 31.041962
2.490000 30.134387 30.459959 30.767894 30.746916 30.997465 31.286779
2.495000 30.176736 30.521343 30.816812 30.796812 31.039137 31.333374
2.520000 30.378482 30.731404 31.013690 31.005105 31.255623 31.624265
2.550000 30.582293 30.962371 31.249635 31.253750 31.529866 31.967692
2.580000 30.867665 31.205739 31.480257 31.505339 31.807372 32.288321
2.610000 31.101192 31.443546 31.715852 31.760136 32.075568 32.629554
2.640000 31.349532 31.670578 31.967202 32.004510 32.331432 32.919907
2.670000 31.562236 31.884346 32.192546 32.245762 32.635835 33.216265
2.700000 31.807046 32.097745 32.427374 32.485256 32.898733 33.475255
2.730000 32.022073 32.320450 32.662243 32.722263 33.146060 33.709554
2.760000 32.268677 32.547031 32.901117 32.965386 33.390924 33.964183
2.790000 32.469852 32.779258 33.153665 33.213232 33.668599 34.185027
2.820000 32.713952 33.017612 33.411179 33.454057 33.914883 34.418536
2.850000 32.940134 33.232934 33.662672 33.690765 34.156019 34.654012
2.880000 33.158808 33.477241 33.912374 33.928071 34.410519 34.801529
2.910000 33.389542 33.698919 34.139789 34.158869 34.637582 35.029750
2.940000 33.620083 33.942247 34.381152 34.395893 34.856456 35.247852
2.970000 33.891916 34.168825 34.642535 34.644978 35.094709 35.488073
2.974000 33.928891 34.213732 34.678619 34.683460 35.134231 35.546810
3.000000 34.129583 34.465333 34.942852 34.966280 35.446816 35.979242
3.030000 34.332740 34.749175 35.270597 35.292972 35.835663 36.431687
3.060000 34.548849 35.030871 35.637975 35.655297 36.263496 36.988983
3.090000 34.784869 35.303513 35.986833 36.029769 36.737199 37.530122
3.120000 35.023717 35.608663 36.379302 36.407421 37.196598 38.070849
3.150000 35.336366 35.895366 36.721464 36.764194 37.639732 38.466546
3.180000 35.591962 36.248363 37.080768 37.128295 37.995600 38.816721
3.210000 35.810082 36.584757 37.484977 37.502888 38.384574 39.231021
3.270000 36.335106 37.330950 38.318410 38.260619 39.124032 39.841484
3.300000 36.635362 37.737743 38.738991 38.630779 39.485149 40.156238
3.330000 37.087814 38.159140 39.107409 39.004840 39.822482 40.478408
3.360000 37.545925 38.662599 39.458568 39.370012 40.135913 40.700840
3.390000 38.153802 39.050899 39.799074 39.730497 40.443336 40.973583
3.420000 38.664733 39.473477 40.130435 40.091605 40.720134 41.228575
3.450000 39.200843 39.898214 40.453002 40.432758 40.992161 41.429122
3.480000 39.670597 40.278711 40.779886 40.768104 41.277546 41.656794
3.500000 39.981663 40.526635 41.019725 40.999617 41.493722 41.825148
3.510000 40.102445 40.641059 41.137025 41.119767 41.627853 42.001425
3.570000 40.644293 41.213182 41.893432 41.996968 42.710708 44.174712
3.600000 40.891277 41.478405 42.243279 42.393148 43.253263 44.694119
3.630000 41.131216 41.782269 42.603007 42.769682 43.777181 45.200621
3.660000 41.427822 42.041030 42.969936 43.125852 44.228115 45.526787
3.690000 41.691184 42.351464 43.343003 43.500939 44.677323 45.952228
3.750000 42.155662 42.963485 44.142539 44.283903 45.595614 47.018156
3.840000 42.773284 43.917060 45.445183 45.617246 47.214093 49.592096
3.930000 43.516771 44.927162 46.740852 46.981397 49.076924 52.289269
3.960000 43.817054 45.315693 47.059889 47.362724 49.477207 52.773528
3.990000 44.137732 45.732696 47.472586 47.757095 49.851597 53.163354
4.050000 44.716721 46.592903 48.299190 48.619932 50.687369 54.141307
4.080000 45.073182 47.015513 48.665367 49.001303 51.025292 54.625500
4.110000 45.343157 47.294857 49.044585 49.353279 51.380364 54.942562
