depth(m) lower_95(kyr) lower_68(kyr) median(kyr) mean(kyr) upper_68(kyr) upper_95(kyr)
0.010000 1.940786 2.825021 3.256099 3.178346 3.573192 3.822344
0.030000 3.201251 3.470507 3.704774 3.700143 3.935979 4.179289
0.070000 3.821082 4.133851 4.510502 4.610608 5.112012 5.988046
0.100000 4.351519 4.702252 5.288499 5.431693 6.193091 7.252910
0.130000 4.893675 5.392863 6.273476 6.333969 7.271289 8.088564
0.170000 5.873883 6.775305 7.855097 7.861769 8.956891 9.929044
0.200000 8.111872 8.959770 9.887176 9.869206 10.767991 11.750864
0.230000 12.180195 12.706499 13.359851 13.490868 14.396534 14.951204
0.270000 13.524450 14.402269 14.916139 14.848099 15.307587 15.699941
0.300000 14.904726 15.297543 15.619138 15.598471 15.906620 16.202826
0.330000 15.543379 15.935092 16.219604 16.225394 16.542313 16.842392
0.370000 16.512879 16.786003 17.100680 17.138709 17.484779 17.956525
0.400000 16.993171 17.278643 17.648002 17.688654 18.104285 18.600454
0.430000 17.430082 17.772846 18.145698 18.183345 18.589873 19.093030
0.470000 17.930296 18.366234 18.771192 18.791465 19.208163 19.754454
0.500000 18.341817 18.831304 19.234098 19.255743 19.689294 20.192557
0.530000 18.776189 19.270908 19.711483 19.715529 20.186411 20.644512
0.570000 19.304033 19.848996 20.306403 20.316842 20.795463 21.264635
0.600000 19.745609 20.294255 20.784988 20.783450 21.284604 21.736991
0.630000 20.192470 20.773051 21.268719 21.263488 21.772675 22.280088
0.670000 20.741803 21.367909 21.861248 21.891256 22.403683 23.123457
0.700000 21.218414 21.818820 22.338716 22.386888 22.947155 23.884203
0.730000 21.669152 22.263392 22.839082 22.929536 23.636291 24.571394
0.770000 22.410386 22.934480 23.622495 23.705272 24.528433 25.391172
0.800000 22.907296 23.505796 24.219904 24.307988 25.144955 26.035383
0.830000 23.428605 24.141097 24.889916 24.969665 25.900222 26.713383
0.860000 24.014092 24.717952 25.609379 25.649786 26.633507 27.457911
0.900000 24.738040 25.502318 26.600140 26.700469 27.868583 29.588187
0.930000 25.383822 26.164546 27.417472 27.561841 28.924025 30.633118
0.970000 26.266284 27.157661 28.734634 28.834635 30.620420 31.704447
1.000000 26.947071 27.900830 29.889050 29.742924 31.528741 32.357422
1.030000 27.642826 28.772370 30.797998 30.600742 32.232966 33.094527
1.070000 28.678435 30.000236 32.002334 31.693593 33.082197 33.803166
1.100000 29.473996 31.022178 32.743387 32.456962 33.655827 34.362194
1.130000 30.286366 32.070969 33.437180 33.179693 34.240387 34.932166
1.170000 31.417626 33.048604 34.121843 33.969565 34.890499 35.625239
1.200000 32.364796 33.656777 34.666217 34.564676 35.489033 36.225051
1.230000 33.268446 34.456303 35.297778 35.261492 36.079285 36.938901
1.270000 34.358504 35.248352 36.106934 36.103351 36.900815 37.854250
1.300000 35.066018 35.938976 36.731524 36.738849 37.570390 38.390891
1.330000 35.881213 36.745703 37.432277 37.457753 38.267011 38.982866
1.370000 36.777263 37.710978 38.483906 38.425446 39.173853 39.751717
1.400000 37.561572 38.514130 39.223118 39.171878 39.873770 40.353671
1.430000 38.658010 39.306333 39.938423 39.912874 40.519108 40.942752
1.470000 39.442512 40.188685 40.833946 40.727557 41.215786 41.536250
1.500000 40.319674 40.985734 41.410687 41.346432 41.712246 41.978979
1.530000 41.591710 41.789850 42.005843 42.004998 42.214942 42.421618
1.570000 42.107995 42.443604 42.783154 43.019213 43.592693 45.178449
1.600000 42.502786 42.893043 43.478160 43.831107 44.904931 46.587666
1.630000 42.966109 43.358909 44.381546 44.652064 45.870273 47.927272
1.670000 43.480305 44.112393 45.556558 45.827101 47.210291 50.220559
1.700000 43.910309 44.795941 46.392868 46.717481 48.928075 51.172894
1.730000 44.427052 45.526641 47.230582 47.595584 50.197991 51.961716
1.770000 45.110614 46.414359 48.272715 48.744048 51.687659 52.801873
1.800000 45.687053 47.028953 48.995917 49.513418 52.437873 53.458120
1.830000 46.332949 47.647145 49.703911 50.247115 53.189962 53.949870
1.870000 47.299943 48.486953 50.829902 51.113333 53.897083 54.650076
1.900000 47.848112 49.162194 51.641132 51.754496 54.497771 55.133028
1.930000 48.428356 49.731201 52.705651 52.414589 54.973572 55.596187
1.970000 49.352219 50.521994 53.906939 53.216158 55.594770 56.155819
2.000000 49.930486 51.092825 54.623866 53.804842 56.039202 56.595477
2.030000 50.535696 51.733729 55.453800 54.391694 56.527809 56.998259
2.070000 51.476645 52.593964 56.169029 55.175193 57.129420 57.628658
2.100000 52.022325 53.152665 56.809482 55.747162 57.567226 58.080077
2.130000 52.802363 53.779848 57.335462 56.320635 58.048076 58.549724
2.200000 53.985089 55.231520 58.289136 57.538513 59.008269 59.516881
2.230000 54.600331 56.050703 58.734745 58.100648 59.439528 59.982338
2.270000 55.452871 57.069434 59.352746 58.809257 60.004465 60.489463
2.300000 56.166010 57.881990 59.839247 59.359087 60.416835 60.901516
2.330000 57.126771 58.795353 60.277272 59.931329 60.801821 61.311298
2.370000 58.630007 59.990518 60.873996 60.709496 61.438477 61.845688
2.400000 59.829959 60.798298 61.384829 61.325154 61.919822 62.426635
2.430000 60.690407 61.371582 61.864252 61.845837 62.367322 62.899495
2.470000 61.571601 62.045898 62.513466 62.534037 63.034331 63.694127
2.500000 62.052788 62.489402 62.994086 63.039560 63.572028 64.275903
2.520000 62.341714 62.790326 63.326711 63.372306 63.947965 64.643750
2.540000 62.654256 63.100310 63.655798 63.701164 64.321086 64.980049
2.560000 62.972747 63.413865 63.989036 64.042300 64.688029 65.430488
2.580000 63.321245 63.737050 64.358742 64.402804 65.048040 65.797254
2.600000 63.633816 64.112345 64.732870 64.765159 65.437709 66.112465
2.620000 63.974894 64.449200 65.094041 65.129703 65.806709 66.495786
2.640000 64.318413 64.828286 65.474220 65.497846 66.155439 66.826897
2.700000 65.311099 65.861766 66.523794 66.494581 67.096202 67.651218
2.760000 66.464774 67.042517 67.555061 67.538403 68.020041 68.524067
2.780000 66.983530 67.480331 67.960314 67.950250 68.392982 69.048037
2.800000 67.406513 67.872512 68.301360 68.330652 68.765076 69.414903
2.820000 67.887893 68.248326 68.662840 68.717853 69.166950 69.866182
2.840000 68.240674 68.660724 69.115159 69.183104 69.683588 70.585168
2.860000 68.603877 69.012514 69.533915 69.649028 70.259438 71.473801
2.880000 68.906073 69.389639 70.005608 70.196342 71.065476 72.574907
2.900000 69.273839 69.834760 70.618944 70.886381 72.143521 73.304997
2.920000 69.715238 70.365582 71.476880 71.647573 73.128972 73.903878
2.940000 70.332215 71.134294 72.484947 72.528386 74.009636 74.638530
2.960000 71.012076 71.800062 73.400106 73.396480 74.836149 76.279765
2.980000 71.682416 72.767018 74.166436 74.258901 75.630950 77.558679
3.000000 72.745192 73.805401 74.754199 75.040116 76.763956 78.323121
3.020000 74.481280 74.972311 75.578402 75.999017 77.507767 79.201100
3.040000 75.052620 75.545877 76.209362 76.681054 78.415802 79.805705
3.060000 75.613466 76.150574 76.893530 77.390505 79.202388 80.260009
3.080000 76.407066 77.075210 78.230941 78.372366 79.787411 80.812078
3.100000 77.116987 78.186135 79.446335 79.366693 80.506211 81.254705
3.120000 78.220487 79.460963 80.412245 80.310337 81.136365 81.740528
3.140000 79.415573 80.513421 81.240503 81.158962 81.863684 82.331286
3.160000 80.485043 81.333929 81.919368 81.846249 82.387071 82.764605
3.180000 81.538646 82.095865 82.491031 82.465548 82.871355 83.204856
3.200000 82.033843 82.493057 82.898610 82.866004 83.258932 83.541419
3.220000 82.547915 82.892675 83.274877 83.253168 83.600716 83.860767
3.240000 82.896451 83.242232 83.605798 83.583114 83.911790 84.199512
3.260000 83.220368 83.585369 83.898548 83.894614 84.214748 84.490228
3.280000 83.570408 83.886024 84.191586 84.187604 84.483519 84.766523
3.300000 83.817164 84.171662 84.482258 84.471632 84.772203 85.040710
3.320000 84.135481 84.488785 84.775900 84.767631 85.058218 85.304899
3.340000 84.468033 84.793506 85.072329 85.065558 85.339722 85.606394
3.360000 84.763620 85.099762 85.379731 85.359725 85.607001 85.850333
3.380000 85.162411 85.427732 85.684320 85.675876 85.915033 86.148248
3.400000 85.567432 85.836136 86.103123 86.149583 86.421556 87.156904
3.420000 85.910525 86.203750 86.514478 86.762848 87.187698 90.036271
3.440000 86.246515 86.528320 86.959532 87.651185 89.819449 91.424375
3.460000 86.486067 86.784639 87.335045 88.591499 91.205027 92.123989
3.480000 86.806523 87.129051 88.800007 89.351674 91.806355 92.680348
3.500000 87.155247 87.668912 90.576411 90.198339 92.264263 93.201047
3.520000 87.484619 88.233171 91.364994 90.960407 92.753582 93.534969
3.540000 87.932538 89.580429 91.841083 91.529337 93.148490 93.827895
3.560000 88.447052 90.655792 92.374301 92.111631 93.523551 94.158262
3.580000 89.336129 91.150574 92.881023 92.592685 93.937942 94.488216
3.600000 90.259194 91.651693 93.408650 93.075644 94.305839 94.810775
3.620000 91.129783 92.309304 93.935615 93.640621 94.688647 95.148715
3.640000 92.267673 93.449610 94.533599 94.339023 95.143728 95.631251
3.660000 92.987441 94.209365 95.062945 94.941747 95.627041 96.056771
3.680000 93.791200 94.954042 95.624441 95.559114 96.157511 96.952773
3.700000 94.310853 95.349444 96.008679 96.005819 96.643284 97.652341
3.720000 94.911952 95.721568 96.366275 96.419660 97.076136 98.301337
3.740000 95.455154 96.083877 96.704391 96.827009 97.555439 98.808189
3.760000 95.814870 96.462189 97.092965 97.243985 98.154675 99.260787
3.780000 96.238049 96.832574 97.538370 97.680426 98.617781 99.784976
3.800000 96.531502 97.196145 97.947089 98.089683 99.086481 100.239924
3.820000 96.860362 97.579424 98.333594 98.484975 99.500578 100.602440
3.840000 97.251609 97.922876 98.721828 98.864650 99.911957 101.006629
3.860000 97.564038 98.290912 99.090057 99.249188 100.311590 101.399471
3.880000 97.925996 98.647084 99.498042 99.638646 100.693734 101.771653
3.900000 98.353111 99.047800 99.905548 100.029137 101.089292 102.110031
3.920000 98.714037 99.394068 100.327081 100.404396 101.479855 102.401792
3.940000 99.096123 99.783235 100.725201 100.781247 101.873467 102.746157
3.960000 99.447492 100.157357 101.104435 101.161710 102.236188 103.122593
3.980000 99.829220 100.566390 101.469766 101.550740 102.626867 103.459495
4.000000 100.153158 100.938552 101.908157 101.957488 102.976057 103.881852
4.020000 100.574499 101.437724 102.388666 102.405698 103.449778 104.241212
4.040000 101.034108 101.939753 102.953836 102.910972 103.899768 104.795055
4.060000 101.548048 102.471308 103.439820 103.412560 104.319626 105.284874
4.080000 102.034794 103.037033 104.060679 103.990551 104.843255 105.862788
4.100000 102.769115 103.718689 104.665514 104.596434 105.357319 106.256801
4.120000 103.355449 104.364624 105.177510 105.105396 105.794562 106.707014
4.140000 103.983527 104.944604 105.617403 105.592259 106.223133 107.117254
4.160000 104.605692 105.408657 106.020899 106.028948 106.674853 107.639039
4.180000 105.068219 105.818115 106.413853 106.442203 107.116145 107.928704
4.200000 105.477171 106.241612 106.808993 106.854998 107.506879 108.284877
4.220000 105.901495 106.645633 107.244718 107.272544 107.940487 108.610872
4.240000 106.289212 107.084988 107.715990 107.707256 108.351612 108.965830
4.260000 106.728598 107.564677 108.185254 108.159234 108.793277 109.353485
4.280000 107.290976 108.052199 108.606689 108.596239 109.205613 109.787579
4.300000 107.778620 108.429871 108.956327 108.975266 109.567355 110.154295
4.320000 108.197054 108.769114 109.292551 109.312120 109.902387 110.488085
4.380000 109.087104 109.592167 110.137495 110.139907 110.695429 111.309524
4.400000 109.428067 109.907983 110.464473 110.466205 111.003295 111.587478
4.420000 109.791670 110.236637 110.778654 110.798451 111.340360 111.884306
4.440000 110.179819 110.592351 111.134661 111.150703 111.686327 112.216430
4.460000 110.533177 111.001258 111.531902 111.527808 112.065017 112.570100
4.480000 110.928515 111.441709 111.955958 111.952321 112.479313 112.944631
4.500000 111.498248 111.964999 112.499848 112.490860 112.997592 113.447275
4.520000 112.213039 112.784682 113.333732 113.346635 113.888520 114.641324
4.540000 113.015152 113.508812 114.027273 114.095013 114.739412 115.638319
4.560000 113.530734 114.053233 114.692301 114.782623 115.595217 116.438917
4.580000 114.091618 114.770404 115.610113 115.672376 116.638831 117.461448
4.600000 114.942830 115.718000 116.775385 116.784612 117.810090 118.762283
4.620000 115.903767 116.893842 117.865634 117.868319 118.861072 119.846672
4.640000 116.992238 117.826884 118.658369 118.697965 119.565846 120.639197
4.660000 119.155320 119.963056 120.794099 120.795650 121.643547 122.419311
4.680000 119.866087 120.703675 121.710208 121.730359 122.738584 123.742508
4.700000 120.565103 121.540329 122.573427 122.651010 123.753501 124.995028
4.720000 121.416287 122.374365 123.536344 123.601706 124.840519 126.136143
4.740000 122.227852 123.258691 124.432088 124.523966 125.854083 127.256775
4.760000 123.153486 124.231029 125.399559 125.469054 126.777197 128.028569
4.780000 124.107136 125.139528 126.340217 126.332398 127.583087 128.621922
4.800000 125.161357 126.217006 127.235130 127.212485 128.288635 129.014101
4.820000 126.476257 127.267301 128.231452 128.153586 129.003252 129.515743
4.840000 127.959089 128.792384 129.404756 129.317815 129.859541 130.160505
4.860000 129.332633 129.725300 130.086778 130.060899 130.378742 130.701541
4.880000 129.743276 130.083872 130.416510 130.396366 130.694072 130.960682
4.900000 130.105469 130.406701 130.731948 130.714941 131.003759 131.279578
4.920000 130.441305 130.742074 131.049100 131.026915 131.298960 131.541434
4.940000 130.793849 131.062829 131.355891 131.343387 131.617233 131.827694
4.960000 131.117619 131.359922 131.649293 131.640174 131.913129 132.131356
4.980000 131.419273 131.652565 131.928846 131.932619 132.213515 132.413153
5.000000 131.739373 131.988953 132.290727 132.288759 132.578133 132.806814
5.020000 132.117270 132.386463 132.710913 132.715374 133.023887 133.315463
5.040000 132.496203 132.772649 133.085428 133.084545 133.370478 133.622780
5.060000 132.997210 133.305634 133.567346 133.571333 133.823947 134.026503
5.080000 133.383424 133.666453 133.971004 133.962334 134.214319 134.456081
5.100000 133.718192 134.035998 134.308097 134.307582 134.560533 134.808159
5.120000 134.078490 134.378881 134.641432 134.651207 134.900003 135.138611
5.140000 134.483023 134.720391 134.943325 134.956383 135.175240 135.440729
5.160000 134.779636 135.016835 135.244784 135.257676 135.468303 135.732272
5.180000 135.066038 135.325477 135.546557 135.578080 135.792045 136.175335
5.200000 135.421414 135.649478 135.887203 135.949644 136.213151 136.808529
5.220000 135.686223 135.929303 136.180080 136.285396 136.635225 137.445399
5.240000 135.971229 136.200835 136.495438 136.629448 137.032412 138.047966
5.260000 136.210714 136.476298 136.837183 136.984509 137.523686 138.467422
5.280000 136.478567 136.761669 137.186549 137.356920 138.020025 138.890021
5.300000 136.726413 137.062568 137.512913 137.711547 138.434659 139.402775
5.340000 137.194018 137.640841 138.207982 138.397344 139.187785 140.410533
5.360000 137.481948 137.952719 138.573884 138.764976 139.600768 140.851273
5.380000 137.784500 138.271879 138.986264 139.148426 140.000538 141.384892
5.400000 138.061209 138.599543 139.387576 139.526299 140.417164 141.810906
5.420000 138.346309 138.932708 139.815818 139.922337 140.875177 142.347772
5.440000 138.716874 139.282537 140.243859 140.331521 141.346446 142.841015
5.460000 139.028703 139.631628 140.634132 140.726784 141.790186 143.208297
5.480000 139.318699 139.949619 141.017726 141.102023 142.174996 143.693818
5.500000 139.683950 140.293819 141.399351 141.476985 142.616297 144.150263
5.520000 139.980371 140.655730 141.741053 141.855490 143.062526 144.485839
5.540000 140.305192 140.998158 142.144868 142.237019 143.511163 144.880014
5.560000 140.591058 141.391347 142.516979 142.644294 143.936187 145.331042
5.580000 140.925816 141.747300 142.904740 143.048967 144.373059 145.857104
5.600000 141.236805 142.107310 143.318799 143.442665 144.767992 146.275380
5.620000 141.585385 142.469036 143.725291 143.845393 145.161493 146.915252
5.640000 141.826472 142.847046 144.086241 144.263627 145.676293 147.424515
5.660000 142.248093 143.235703 144.492041 144.673131 146.194934 147.966770
5.680000 142.561104 143.678368 144.942566 145.131740 146.716530 148.445383
5.700000 142.913735 144.036163 145.388658 145.577545 147.205633 148.912040
