depth(m) lower_95(kyr) lower_68(kyr) median(kyr) mean(kyr) upper_68(kyr) upper_95(kyr)
0.090000 0.025301 0.110494 0.250615 0.262006 0.419300 0.581442
0.170000 0.357785 0.560909 0.829192 0.950237 1.329911 2.258741
0.250000 0.715057 1.031403 1.519840 1.673006 2.326773 3.399724
0.350000 1.238877 1.637869 2.416231 2.524491 3.397788 4.388465
0.400000 1.486689 1.950265 2.874170 2.942897 3.853563 4.981972
0.450000 1.731695 2.373940 3.323242 3.376531 4.329916 5.585786
0.500000 2.039188 2.764310 3.749824 3.810478 4.855289 6.125594
0.550000 2.384983 3.194050 4.159079 4.261573 5.307179 6.595421
0.600000 2.811976 3.667045 4.635144 4.732150 5.805834 7.069200
0.650000 3.384751 4.157959 5.169443 5.236636 6.313345 7.459887
0.700000 3.838810 4.603276 5.752332 5.735749 6.739639 7.956657
0.750000 4.215920 5.257779 6.287124 6.273555 7.267087 8.411025
0.800000 4.755932 5.796671 6.911421 6.853879 7.807731 8.909350
0.850000 5.247349 6.477556 7.457259 7.405501 8.379344 9.340024
0.900000 5.901716 7.091916 8.039333 8.017111 8.990159 9.844783
0.950000 6.741667 7.753531 8.731784 8.676228 9.600505 10.299048
1.000000 7.638559 8.609982 9.543362 9.481126 10.302611 11.019037
1.050000 8.485020 9.488301 10.288296 10.236358 10.991366 11.602308
1.100000 9.422510 10.424981 11.163653 11.064153 11.734236 12.148875
1.150000 10.301149 11.189017 11.775064 11.705035 12.229876 12.636144
1.200000 11.209943 11.802209 12.254866 12.223017 12.661966 13.028380
1.250000 11.801522 12.259193 12.651710 12.645764 13.042399 13.409866
1.300000 12.300468 12.617782 13.036757 13.031076 13.415164 13.808532
1.350000 12.696050 13.034278 13.402714 13.413966 13.806937 14.201336
1.400000 13.071639 13.409781 13.800052 13.808113 14.216546 14.519192
1.450000 13.464892 13.768502 14.174307 14.164683 14.567569 14.854181
1.500000 13.871157 14.184258 14.565597 14.551520 14.907578 15.188583
1.550000 14.283418 14.600294 14.962039 14.939444 15.267813 15.527040
1.600000 14.599806 14.913689 15.264696 15.236666 15.536684 15.769175
1.650000 14.900549 15.231513 15.554503 15.532255 15.808177 16.096342
1.700000 15.354475 15.615783 15.887759 15.886185 16.148670 16.465095
1.750000 15.646282 15.929205 16.197967 16.212579 16.509141 16.863169
1.800000 15.954940 16.220363 16.544117 16.572858 16.905224 17.368271
1.850000 16.204951 16.501980 16.908071 16.952460 17.368924 18.054498
1.900000 16.448192 16.775405 17.229802 17.303250 17.828591 18.584648
1.950000 16.684812 17.066059 17.575576 17.689582 18.362013 19.199855
2.000000 16.910554 17.320177 17.934101 18.053130 18.846742 19.669465
2.050000 17.140197 17.584222 18.263575 18.381065 19.207823 20.152451
2.100000 17.319117 17.838000 18.578868 18.696268 19.581422 20.474294
2.150000 17.545235 18.146343 18.919372 19.031737 19.968443 20.810528
2.200000 17.785610 18.431517 19.291398 19.375729 20.328617 21.171906
2.250000 18.107825 18.740543 19.700658 19.718544 20.637950 21.512555
2.300000 18.331731 19.106697 20.094435 20.067874 20.964189 21.787607
2.350000 18.536083 19.431311 20.454291 20.409895 21.312718 22.115325
2.400000 18.808321 19.777530 20.800800 20.735690 21.643664 22.397433
2.450000 19.057336 20.134937 21.122465 21.053662 21.935492 22.675225
2.500000 19.333691 20.469486 21.446835 21.365091 22.228102 22.958566
2.550000 19.607451 20.836299 21.765631 21.695335 22.499903 23.268915
2.600000 19.960332 21.182816 22.111174 22.031168 22.850198 23.663828
2.650000 20.350903 21.512749 22.408475 22.369095 23.187701 24.064261
2.700000 20.671883 21.825933 22.702646 22.697755 23.526604 24.486877
2.750000 20.955104 22.125699 23.067810 23.012347 23.870986 24.812705
2.800000 21.353945 22.377707 23.402635 23.310254 24.200419 25.162165
2.850000 21.728132 22.648315 23.664413 23.600841 24.478390 25.477536
2.900000 22.018493 22.914597 23.984132 23.892338 24.759620 25.700860
2.950000 22.331587 23.189066 24.256346 24.189928 25.064837 26.022644
3.000000 22.821675 23.534397 24.509119 24.494482 25.364276 26.421709
3.050000 23.075394 23.874469 24.785630 24.792744 25.671940 26.648931
3.100000 23.360836 24.217551 25.091606 25.097580 25.972734 26.924652
3.150000 23.681374 24.528682 25.372882 25.408013 26.294040 27.177868
3.200000 23.956661 24.856750 25.639863 25.708524 26.606662 27.486235
3.250000 24.265141 25.197952 25.951114 26.031664 26.907603 28.023329
3.300000 24.707311 25.485813 26.291515 26.358121 27.248380 28.417571
3.350000 25.035151 25.809665 26.596477 26.685938 27.563331 28.778460
3.400000 25.395977 26.138795 26.973205 27.032155 27.883718 29.151519
3.450000 25.786942 26.475284 27.273609 27.353470 28.190412 29.531681
3.500000 26.037989 26.792481 27.611844 27.687859 28.533844 29.879980
3.550000 26.355041 27.072827 27.868632 27.995960 28.916884 30.165163
3.600000 26.615280 27.330321 28.142391 28.285777 29.284030 30.513159
3.650000 26.909560 27.592449 28.427897 28.572122 29.681310 30.832249
3.700000 27.118972 27.815788 28.707739 28.845537 29.967330 31.203867
3.750000 27.323485 28.071281 28.963108 29.121505 30.276628 31.533430
3.800000 27.538810 28.327576 29.223111 29.388927 30.609144 31.865835
3.850000 27.773620 28.537339 29.475002 29.645222 30.919916 32.162240
3.900000 27.966726 28.760942 29.732431 29.892232 31.177739 32.404575
3.950000 28.184977 28.995825 29.946885 30.132383 31.410614 32.683876
4.000000 28.396475 29.229687 30.209709 30.380945 31.690517 32.960639
4.050000 28.570809 29.472596 30.446507 30.619604 31.935841 33.313607
4.100000 28.804241 29.700081 30.666813 30.859878 32.213025 33.592970
4.150000 28.960607 29.929083 30.934145 31.104980 32.419960 33.977182
4.200000 29.221551 30.149635 31.199427 31.354958 32.645358 34.237201
4.250000 29.378165 30.358830 31.477991 31.587156 32.857073 34.517460
4.300000 29.597947 30.590995 31.704713 31.818177 33.111409 34.806729
4.350000 29.759667 30.820543 31.972763 32.049876 33.332883 35.027066
4.400000 29.964431 31.024119 32.212671 32.283039 33.585131 35.263562
4.450000 30.190019 31.269793 32.496044 32.519582 33.778255 35.480296
4.500000 30.369617 31.503207 32.741847 32.749591 34.002508 35.642200
4.550000 30.557668 31.737688 33.019045 32.994894 34.272420 35.893147
4.600000 30.785753 31.995308 33.265476 33.243875 34.507553 36.115743
4.650000 31.023851 32.254510 33.507323 33.507721 34.738941 36.370316
4.700000 31.293013 32.479934 33.756961 33.772629 34.961662 36.817752
4.750000 31.675424 32.725967 33.993420 34.036075 35.195317 37.403766
4.800000 31.861442 32.943214 34.267973 34.309670 35.457715 37.735312
4.850000 32.309354 33.189946 34.551253 34.591818 35.728886 38.102885
4.900000 32.545406 33.452810 34.849423 34.888434 36.024665 38.438710
4.950000 32.836649 33.780949 35.183481 35.228656 36.364926 38.663190
5.000000 33.158375 34.195664 35.604826 35.610338 36.730249 38.872698
5.050000 33.466757 34.651579 36.095450 36.050177 37.196472 39.077941
5.100000 33.811469 35.215148 36.611106 36.548257 37.715104 39.257479
5.150000 34.097239 35.833047 37.108932 37.025152 38.279869 39.451407
5.200000 34.360620 36.378105 37.625953 37.486568 38.684784 39.635567
5.250000 34.521688 37.001668 38.196627 37.964271 39.063274 39.842748
5.300000 34.738623 37.567684 38.815292 38.483148 39.477686 40.172413
5.350000 35.018725 38.174496 39.243387 38.890733 39.801824 40.397864
5.400000 35.271853 38.690280 39.572596 39.251471 40.093644 40.608621
5.450000 35.577655 39.090347 39.853479 39.580095 40.358687 40.808918
5.500000 35.871621 39.390390 40.104961 39.867354 40.610618 41.077776
5.550000 36.272092 39.674425 40.340225 40.134570 40.834845 41.315910
5.600000 37.004025 39.981324 40.585404 40.401177 41.046317 41.547269
5.650000 38.196607 40.241901 40.815906 40.653507 41.296393 41.751171
5.700000 38.800786 40.460753 41.031086 40.895815 41.533017 41.954733
5.750000 39.132787 40.701014 41.268131 41.131783 41.746947 42.138916
5.800000 39.485320 40.925622 41.489618 41.356612 41.954654 42.360624
5.850000 39.716127 41.165530 41.714779 41.583277 42.151305 42.549538
5.900000 40.075963 41.426769 41.933307 41.818905 42.370893 42.775611
5.950000 40.275962 41.679725 42.149923 42.047329 42.577230 43.032042
6.000000 40.571025 41.899398 42.357472 42.273017 42.804246 43.238951
6.050000 40.784769 42.112975 42.565946 42.491792 43.005594 43.413701
6.150000 41.716425 42.486180 42.947851 42.904827 43.378240 43.803681
6.200000 42.015218 42.725913 43.165293 43.130538 43.571824 43.986864
6.250000 42.388046 42.958542 43.390833 43.364106 43.785449 44.230166
6.300000 42.695687 43.212701 43.623398 43.600344 43.995449 44.430740
6.350000 43.074273 43.445606 43.839398 43.834024 44.218272 44.618622
6.400000 43.334064 43.675760 44.074043 44.060926 44.431182 44.834362
6.450000 43.543505 43.909388 44.281740 44.281304 44.649853 45.028266
6.500000 43.746788 44.132600 44.506536 44.505460 44.871105 45.246410
6.550000 43.960805 44.372034 44.744696 44.735111 45.075744 45.490529
6.600000 44.232941 44.596959 44.985566 44.970821 45.324581 45.693973
6.650000 44.497601 44.851638 45.220175 45.216509 45.558748 45.942042
6.700000 44.737985 45.108583 45.475361 45.473447 45.820399 46.170601
6.720000 44.845119 45.223962 45.593350 45.583328 45.932961 46.281828
6.750000 44.989029 45.394556 45.779444 45.776346 46.157252 46.575335
6.800000 45.227241 45.671046 46.080259 46.125444 46.570937 47.336382
6.850000 45.427676 45.912050 46.403858 46.503910 47.098283 48.280019
6.900000 45.684642 46.179094 46.716634 46.906668 47.706025 48.963997
6.950000 45.923579 46.425208 47.100649 47.315102 48.343257 49.595487
7.000000 46.155071 46.677636 47.511776 47.761051 48.953020 50.341540
7.050000 46.444014 46.976199 48.003149 48.199922 49.523463 50.794752
7.100000 46.676149 47.269494 48.524236 48.636841 50.040702 51.155096
7.150000 46.894873 47.597674 49.041352 49.082847 50.570726 51.552694
7.200000 47.117742 47.950899 49.553488 49.537669 51.089493 51.978006
7.250000 47.374650 48.325521 50.081789 49.992031 51.540857 52.348911
7.300000 47.639657 48.736219 50.661270 50.451134 51.973362 52.807789
7.350000 47.854915 49.122653 51.188067 50.893794 52.375014 53.225977
7.400000 48.071969 49.496972 51.711378 51.331013 52.782028 53.595469
7.450000 48.303654 49.979080 52.155258 51.737179 53.159334 53.955225
7.500000 48.582883 50.459723 52.570076 52.143538 53.516103 54.342934
7.550000 48.767813 50.947805 52.927174 52.524260 53.794349 54.705131
7.600000 49.016995 51.475295 53.206169 52.881702 54.150403 54.965929
7.650000 49.254871 51.871467 53.535745 53.228234 54.441001 55.310875
7.700000 49.538217 52.252662 53.831415 53.570356 54.796842 55.705717
7.750000 49.850459 52.689360 54.122439 53.907537 55.098906 56.148061
7.800000 50.106926 53.190550 54.459444 54.262720 55.414067 56.435993
7.850000 50.490095 53.661035 54.807212 54.612839 55.744919 56.734274
7.900000 50.756334 54.071392 55.142666 54.960861 56.059491 57.071634
7.950000 51.004915 54.475309 55.525204 55.317694 56.453370 57.325446
8.000000 51.332392 54.925460 55.887817 55.685361 56.781019 57.578784
8.050000 51.539281 55.308836 56.204709 56.032477 57.097867 57.872181
8.100000 51.942842 55.683180 56.592635 56.416702 57.470093 58.256095
8.150000 52.546828 56.060072 56.979813 56.791740 57.832080 58.687851
8.200000 53.157159 56.427018 57.399854 57.207562 58.268716 59.051267
8.250000 53.696090 56.793149 57.793472 57.609508 58.682395 59.485405
8.300000 54.175799 57.133846 58.199288 57.991108 59.042760 59.823668
8.350000 54.632944 57.494189 58.582066 58.367595 59.422724 60.130299
8.400000 54.907604 57.911147 58.969177 58.743912 59.747881 60.420236
8.450000 55.512748 58.270425 59.313433 59.101290 60.077845 60.725358
8.500000 55.892987 58.714418 59.689251 59.471027 60.420005 61.039688
8.550000 56.546035 59.073366 60.019741 59.832609 60.735430 61.383604
8.600000 57.341995 59.486891 60.362592 60.195598 61.024988 61.700118
8.650000 57.709257 59.914200 60.702452 60.573119 61.346869 62.171162
8.700000 58.350730 60.387094 61.050110 60.988343 61.757347 62.460951
8.750000 59.476642 60.746594 61.428612 61.381529 62.108825 62.859860
8.800000 60.011369 61.104717 61.765807 61.740703 62.460169 63.218066
8.850000 60.654653 61.442610 62.066105 62.083138 62.770895 63.634159
8.900000 61.140309 61.816028 62.433392 62.451889 63.144515 64.031188
8.950000 61.442608 62.130933 62.747037 62.783052 63.467365 64.398524
9.000000 61.787269 62.412768 63.073188 63.119291 63.825792 64.975236
9.050000 62.111396 62.686258 63.374835 63.436293 64.148614 65.317535
9.100000 62.386157 62.939714 63.666735 63.739222 64.522950 65.685321
9.150000 62.628519 63.183620 63.934811 64.037343 64.866068 66.147965
9.200000 62.892018 63.450627 64.235792 64.345695 65.212555 66.444648
9.250000 63.111696 63.736732 64.582735 64.659259 65.542364 66.780690
9.300000 63.400288 64.055941 64.903457 64.994447 65.913393 67.138888
9.350000 63.677314 64.360022 65.275944 65.323823 66.235184 67.360064
9.400000 63.937456 64.741175 65.644057 65.674236 66.609931 67.684816
9.450000 64.280707 65.111019 66.002231 66.032085 66.986949 67.965043
9.500000 64.677478 65.499174 66.378275 66.404432 67.343763 68.343179
9.550000 65.007010 65.865090 66.804864 66.807737 67.785800 68.618000
9.600000 65.399543 66.305482 67.232140 67.233667 68.182554 69.024056
9.650000 65.828044 66.718011 67.721404 67.686713 68.647464 69.496355
9.700000 66.346936 67.195731 68.097975 68.106453 68.996784 69.870092
9.750000 66.765198 67.659386 68.539095 68.540723 69.415797 70.277059
9.800000 67.327936 68.169334 69.004908 69.045953 69.914581 70.900901
9.850000 68.081072 68.790879 69.604851 69.632256 70.459430 71.524276
9.900000 68.496766 69.266037 70.091518 70.150286 70.974010 72.131819
9.950000 68.920530 69.663604 70.513306 70.576350 71.447131 72.661994
