depth(m) lower_95(kyr) lower_68(kyr) median(kyr) mean(kyr) upper_68(kyr) upper_95(kyr)
0.030000 0.260570 1.031053 1.841556 1.705664 2.255852 2.669867
0.080000 1.259139 1.942287 2.437620 2.370062 2.788023 3.094487
0.130000 2.428240 2.749000 3.000873 3.005433 3.266227 3.519214
0.140000 2.670517 2.901239 3.149951 3.155737 3.404252 3.624922
0.180000 3.117338 3.394695 3.733809 3.793553 4.145016 4.883242
0.230000 3.615870 3.980793 4.482400 4.647413 5.381764 6.475213
0.280000 4.138529 4.642764 5.512020 5.592670 6.541559 7.592383
0.330000 4.779168 5.561032 6.635164 6.665987 7.713815 8.761260
0.380000 5.637278 6.804662 7.912205 7.905305 9.055896 10.026152
0.430000 7.308651 8.372495 9.529525 9.453354 10.496989 11.289973
0.480000 8.889615 10.044886 11.118735 10.965886 11.806323 12.418165
0.530000 10.847765 11.739194 12.410677 12.368608 13.029605 13.487777
0.580000 12.116517 12.795412 13.402097 13.331865 13.868979 14.259754
0.630000 12.843508 13.626866 14.103839 14.051251 14.529501 14.899834
0.680000 13.481213 14.357908 14.765635 14.735284 15.192771 15.564341
0.730000 14.271596 14.879556 15.260153 15.255023 15.702332 16.125260
0.780000 15.156987 15.498186 15.877189 15.883699 16.263786 16.727668
0.830000 15.722838 16.030423 16.411318 16.481151 16.906030 17.826088
0.880000 16.172016 16.506090 16.978656 17.157814 17.742643 19.329167
0.930000 16.676241 17.070163 17.780167 18.077746 19.260470 20.735218
0.980000 17.204374 17.775940 19.011921 19.147635 20.529219 21.803112
1.030000 17.773846 18.705461 20.212102 20.170351 21.506661 22.721782
1.080000 18.381550 19.800080 21.154251 21.109267 22.288402 23.814287
1.130000 19.246291 20.885240 21.891211 21.929704 22.989930 24.933757
1.180000 20.309544 21.761195 22.548671 22.707174 23.683863 25.930630
1.230000 21.727616 22.465312 23.220062 23.447003 24.366565 26.929355
1.280000 22.378862 23.019768 23.750835 24.064078 25.164954 27.732812
1.330000 22.887354 23.492962 24.269058 24.646470 25.881427 28.356679
1.380000 23.309041 23.952216 24.844719 25.229347 26.656327 29.071259
1.430000 23.757363 24.452830 25.402412 25.792240 27.185087 30.048446
1.480000 24.145571 24.949242 25.968713 26.366541 27.863248 30.863692
1.530000 24.674268 25.449788 26.446668 26.880064 28.336130 31.419555
1.580000 25.176092 25.950626 26.951476 27.415507 28.943005 32.369672
1.630000 25.607351 26.393323 27.403299 27.946343 29.864702 32.957993
1.680000 26.064939 26.823000 27.859399 28.461015 30.450045 33.674575
1.730000 26.515558 27.238470 28.297364 28.971580 31.190024 34.271189
1.780000 26.893919 27.640230 28.662102 29.477598 32.142503 34.707346
1.830000 27.304679 28.017008 29.095237 30.005346 32.974437 35.448917
1.880000 27.698620 28.427217 29.493644 30.579537 33.964119 36.193711
1.930000 28.124156 28.811464 29.979809 31.176481 35.187001 36.970553
1.980000 28.524832 29.206392 30.444948 31.730870 36.093006 37.789415
2.030000 28.912195 29.618448 30.896580 32.262857 37.110553 38.613890
2.080000 29.300177 30.101099 31.351913 32.801212 37.920076 39.345055
2.130000 29.661221 30.563488 31.836479 33.299016 38.659107 39.925996
2.180000 30.060342 31.033402 32.279973 33.804322 39.188775 40.434280
2.230000 30.453384 31.503740 32.819398 34.304056 39.689854 40.952215
2.280000 30.900387 32.064110 33.341233 34.804916 40.119140 41.438274
2.330000 31.355194 32.596988 33.878465 35.322951 40.532666 41.858161
2.380000 31.968155 33.137946 34.381142 35.851501 40.962578 42.331277
2.430000 32.515663 33.671959 34.917331 36.377102 41.330411 42.760782
2.480000 32.910352 34.292472 35.492261 36.928067 41.745539 43.138747
2.530000 33.516936 34.939933 36.290462 37.577728 42.266920 43.571076
2.580000 34.359311 35.885430 37.287978 38.414218 42.724074 44.002086
2.630000 35.082254 37.076428 38.321920 39.223985 43.148142 44.392087
2.680000 35.512405 38.207361 39.377171 40.081569 43.523864 44.941880
2.730000 36.050457 39.014415 40.161672 40.733024 43.954756 45.351549
2.780000 36.727560 39.592123 40.794151 41.282712 44.397373 45.682979
2.830000 37.980710 40.045117 41.322023 41.811591 44.835503 46.076766
2.880000 39.456269 40.556569 41.803133 42.305334 45.190134 46.444538
2.930000 40.088972 41.131822 42.324303 42.827547 45.516865 46.748082
2.980000 40.749310 41.672338 42.846498 43.346423 45.876591 47.108309
3.030000 41.356467 42.313180 43.353569 43.856782 46.261576 47.456769
3.080000 42.050101 42.968100 43.830325 44.405420 46.685515 47.781877
3.130000 42.867109 43.562583 44.386062 44.952565 47.045357 48.145852
3.180000 43.283980 44.044531 44.909492 45.438815 47.404429 48.533457
3.230000 43.687386 44.503073 45.524878 45.922591 47.780119 48.906729
3.280000 44.015470 44.909789 46.134754 46.403692 48.149535 49.353928
3.330000 44.300761 45.320520 46.839435 46.883114 48.520099 49.783918
3.340000 44.372334 45.406258 46.959432 46.978557 48.588629 49.868839
3.380000 44.852137 45.721783 47.349413 47.326646 48.996068 50.194148
3.430000 45.121076 46.115892 47.827576 47.751280 49.343925 50.622354
3.480000 45.402074 46.501159 48.323497 48.154670 49.709571 50.943633
3.530000 45.755541 46.863251 48.751208 48.556570 50.078303 51.276468
3.580000 46.057988 47.278971 49.174079 48.956006 50.413289 51.622227
3.630000 46.366568 47.709239 49.568480 49.361648 50.809692 52.046851
3.680000 46.754626 48.159590 49.925172 49.782305 51.237653 52.561170
3.730000 47.165115 48.596554 50.347653 50.204780 51.660792 53.385605
3.780000 47.513654 49.069222 50.718566 50.627386 52.075843 53.855193
3.830000 47.946779 49.493970 51.082042 51.064668 52.489282 54.466896
3.880000 48.287905 49.926926 51.474382 51.486536 52.881019 55.069100
3.930000 48.684152 50.365384 51.829865 51.921955 53.402115 55.706105
3.980000 49.097332 50.881132 52.273829 52.404108 54.029480 56.142693
4.030000 49.418358 51.319269 52.704518 52.847767 54.597848 56.496927
4.080000 49.772119 51.750628 53.175870 53.309670 55.215424 56.799018
4.130000 50.070415 52.185384 53.685915 53.775947 55.687623 57.438200
4.180000 50.501849 52.604716 54.175741 54.258012 56.326135 57.811971
4.230000 50.851439 52.977392 54.649670 54.737208 56.878000 58.424025
4.280000 51.174976 53.369261 55.191042 55.245113 57.364400 59.299392
4.330000 51.591444 53.784618 55.716440 55.729036 57.827384 59.833926
4.380000 51.966399 54.191067 56.287425 56.234286 58.360504 60.249261
4.430000 52.440013 54.533194 56.884493 56.777899 58.975775 60.755269
4.530000 53.064956 55.244864 58.025050 57.825307 60.278582 61.890400
4.580000 53.503388 55.625849 58.585470 58.313645 60.777723 62.328878
4.630000 53.918143 55.970496 59.172357 58.801193 61.269568 62.862187
4.680000 54.494495 56.315327 59.799683 59.306080 61.715589 63.679519
4.730000 54.830549 56.667292 60.239608 59.816784 62.258808 64.733554
4.780000 55.228081 57.088839 60.624878 60.304142 62.697370 66.403278
4.830000 55.726584 57.608829 61.039433 60.788697 63.199111 67.093442
4.880000 56.062993 58.117070 61.422601 61.259294 63.649051 67.858931
4.930000 56.565215 58.524291 61.882068 61.766573 64.220560 68.398843
