depth(m) lower_95(kyr) lower_68(kyr) median(kyr) mean(kyr) upper_68(kyr) upper_95(kyr)
0.020000 0.311135 0.564966 0.871153 0.845345 1.105044 1.285839
0.040000 0.360478 0.621138 0.917061 0.893271 1.148829 1.337832
0.060000 0.404243 0.667531 0.967620 0.944994 1.200317 1.399298
0.080000 0.444373 0.717139 1.029349 1.013770 1.282124 1.515754
0.100000 0.489342 0.771263 1.096372 1.090142 1.381952 1.677974
0.120000 0.532596 0.832595 1.161838 1.167243 1.485484 1.819282
0.140000 0.575316 0.890649 1.241562 1.245145 1.581736 1.986126
0.160000 0.620050 0.952234 1.306884 1.325213 1.676931 2.180535
0.180000 0.677029 0.999658 1.385763 1.407462 1.770148 2.392754
0.200000 0.720863 1.076823 1.459729 1.492113 1.895111 2.576441
0.240000 0.829212 1.226221 1.733253 1.803446 2.395757 3.229226
0.260000 0.870603 1.279950 1.793261 1.884426 2.507986 3.402384
0.280000 0.941400 1.338899 1.858428 1.966296 2.612213 3.571251
0.300000 0.977518 1.418778 1.935251 2.049361 2.694387 3.812069
0.320000 1.031066 1.496749 2.016529 2.139115 2.817747 3.921089
0.360000 1.180743 1.755850 2.442241 2.539743 3.347616 4.539476
0.380000 1.227445 1.823781 2.560936 2.639954 3.489410 4.611555
0.400000 1.268612 1.897416 2.693183 2.740509 3.589207 4.753107
0.420000 1.291606 1.970588 2.793521 2.841941 3.683720 4.866506
0.440000 1.330056 2.056488 2.881777 2.945708 3.805657 4.938451
0.460000 1.376916 2.144175 3.001484 3.054810 3.921512 5.068603
0.480000 1.407694 2.223341 3.125891 3.167678 4.045126 5.205055
0.500000 1.448183 2.276803 3.289050 3.283243 4.150759 5.278668
0.520000 1.532055 2.366010 3.438920 3.400300 4.291506 5.407123
0.540000 1.589558 2.481100 3.564300 3.515369 4.413306 5.494320
0.560000 1.625251 2.556481 3.685576 3.626092 4.530586 5.554701
0.580000 1.695233 2.676325 3.800406 3.738523 4.660266 5.671889
0.600000 1.740403 2.747337 3.911935 3.852678 4.833483 5.851546
0.620000 1.818101 2.842037 4.062118 3.967601 4.973428 5.959470
0.640000 1.868855 2.924865 4.184205 4.082972 5.150779 6.099920
0.660000 1.952731 3.016698 4.297536 4.189370 5.262666 6.238285
0.680000 1.990924 3.130460 4.417367 4.294081 5.392457 6.399743
0.700000 2.055712 3.200644 4.524641 4.389183 5.514420 6.498457
0.720000 2.098631 3.261505 4.601575 4.481757 5.628410 6.630226
0.740000 2.203818 3.341894 4.689006 4.567471 5.712285 6.722926
0.760000 2.279676 3.405297 4.756205 4.651734 5.795593 6.806052
0.780000 2.340316 3.481950 4.835395 4.735665 5.880692 6.880075
0.800000 2.415053 3.548783 4.902429 4.818592 5.957264 6.953723
0.840000 2.687836 3.820397 5.180066 5.111336 6.308429 7.190834
0.860000 2.730133 3.887430 5.272377 5.196100 6.390241 7.289196
0.880000 2.810030 3.981958 5.337206 5.281911 6.494695 7.368469
0.900000 2.895031 4.054274 5.432655 5.369915 6.565749 7.458766
0.920000 3.015434 4.149732 5.526752 5.457954 6.645726 7.566594
0.940000 3.129012 4.220856 5.634761 5.549401 6.745530 7.660203
0.960000 3.234190 4.308388 5.709806 5.643973 6.824528 7.749435
0.980000 3.364780 4.416478 5.787593 5.741850 6.927274 7.837026
1.000000 3.518927 4.527495 5.884889 5.842775 7.025883 7.935015
1.020000 3.666458 4.654685 5.986373 5.942644 7.128548 8.043956
1.040000 3.865018 4.785340 6.086601 6.043804 7.216675 8.140351
1.060000 3.993648 4.937481 6.168911 6.144411 7.319226 8.222680
1.080000 4.129234 5.087225 6.256070 6.247738 7.387598 8.301256
1.100000 4.249716 5.212602 6.350006 6.347173 7.478237 8.378877
1.120000 4.349116 5.331770 6.452887 6.447303 7.589339 8.462352
1.140000 4.478890 5.444887 6.560732 6.545822 7.677455 8.524758
1.160000 4.547807 5.566582 6.657903 6.649379 7.791246 8.591676
1.200000 4.863926 5.951657 6.992028 7.003593 8.117997 8.948899
1.220000 4.930310 6.054242 7.089027 7.097569 8.229611 9.069297
1.240000 5.046820 6.177290 7.164420 7.189287 8.319651 9.156098
1.260000 5.126450 6.269041 7.255041 7.280404 8.399416 9.212239
1.280000 5.175699 6.336097 7.345702 7.372129 8.502521 9.299251
1.300000 5.265538 6.412146 7.437226 7.462892 8.604244 9.373683
1.320000 5.369135 6.476808 7.519577 7.551229 8.686032 9.433319
1.340000 5.463806 6.543074 7.615570 7.638554 8.769703 9.493602
1.360000 5.517467 6.646701 7.686895 7.725026 8.860784 9.561531
1.380000 5.615528 6.756920 7.762518 7.803975 8.944926 9.626213
1.400000 5.651685 6.859304 7.864923 7.883108 9.017302 9.696523
1.420000 5.701814 6.939897 7.925311 7.956616 9.075985 9.767693
1.440000 5.775025 7.047710 8.006011 8.033873 9.126681 9.818214
1.460000 5.836309 7.129167 8.085727 8.103947 9.183198 9.879106
1.480000 5.986348 7.190310 8.164390 8.168940 9.271452 9.907976
1.520000 6.246739 7.430805 8.345606 8.363366 9.446391 10.000514
1.560000 6.561901 7.634999 8.568155 8.570329 9.670855 10.075963
1.580000 6.645061 7.696320 8.632243 8.633584 9.723751 10.114828
1.620000 6.906864 7.913911 8.791495 8.806106 9.843025 10.241200
1.640000 7.000097 7.985305 8.857956 8.867904 9.894536 10.291679
1.680000 7.398982 8.182356 9.043944 9.044423 9.992617 10.376793
1.700000 7.446436 8.246980 9.113123 9.103057 10.032285 10.426897
1.720000 7.544647 8.302924 9.181883 9.160490 10.083356 10.454336
1.740000 7.585231 8.354997 9.236482 9.215754 10.119756 10.489526
1.760000 7.651511 8.423906 9.312600 9.271375 10.152269 10.538251
1.780000 7.734597 8.481278 9.365450 9.328863 10.195163 10.582031
1.820000 7.982728 8.685615 9.554207 9.494231 10.281976 10.657266
1.840000 8.041398 8.741363 9.608645 9.551942 10.322346 10.696289
1.860000 8.103619 8.813155 9.671590 9.607897 10.371915 10.733705
1.880000 8.160978 8.879164 9.729513 9.663971 10.413661 10.772743
1.900000 8.210788 8.936466 9.770789 9.719408 10.445872 10.807931
1.920000 8.307055 9.015906 9.845813 9.776190 10.487978 10.847258
1.940000 8.407318 9.087427 9.909068 9.831215 10.525012 10.877454
1.960000 8.441498 9.170034 9.968321 9.885622 10.563913 10.914336
1.980000 8.542060 9.241172 10.025229 9.938580 10.610659 10.933184
2.000000 8.593348 9.314088 10.096611 9.993019 10.639959 10.963153
2.020000 8.678003 9.383022 10.148029 10.044027 10.685530 10.993830
2.040000 8.769617 9.456737 10.208080 10.096798 10.717524 11.026357
2.060000 8.812073 9.534205 10.282777 10.149701 10.761841 11.077392
2.080000 8.868845 9.589862 10.331922 10.199510 10.793204 11.118632
2.100000 8.901187 9.647999 10.380908 10.249191 10.833553 11.162217
2.120000 8.955571 9.706200 10.432345 10.296878 10.861764 11.216236
2.140000 9.037275 9.756920 10.478175 10.341484 10.892689 11.264292
2.160000 9.123658 9.829964 10.522468 10.390520 10.920348 11.296021
2.180000 9.209249 9.891011 10.559941 10.435557 10.955021 11.323724
2.200000 9.279930 9.953546 10.616112 10.480869 10.979843 11.344229
2.220000 9.345356 9.999144 10.656018 10.524094 11.007597 11.371696
2.240000 9.391286 10.040841 10.695044 10.567052 11.035665 11.403891
2.260000 9.477817 10.107616 10.738939 10.610132 11.061122 11.438816
2.280000 9.527518 10.157722 10.776719 10.652881 11.087991 11.488553
2.320000 9.668722 10.286510 10.858173 10.751901 11.149669 11.561534
2.340000 9.742915 10.349208 10.899118 10.794309 11.181275 11.598320
2.360000 9.787239 10.393952 10.936546 10.833581 11.207699 11.625284
2.380000 9.832277 10.435850 10.972040 10.872345 11.235515 11.648815
2.400000 9.864781 10.473991 11.009820 10.909759 11.260599 11.673937
2.420000 9.906624 10.517100 11.048760 10.947102 11.287621 11.689247
2.440000 9.961786 10.560264 11.086912 10.985323 11.320491 11.717116
2.460000 10.012623 10.607452 11.116612 11.022690 11.353380 11.751244
2.480000 10.059669 10.653090 11.159604 11.060832 11.381596 11.780820
2.500000 10.108486 10.694533 11.191642 11.098290 11.407482 11.810028
2.540000 10.187029 10.800037 11.256156 11.164254 11.462195 11.847004
2.620000 10.353494 10.992021 11.367555 11.296206 11.567263 11.953702
2.640000 10.393189 11.044344 11.398719 11.332957 11.599996 11.987962
2.660000 10.423013 11.078768 11.432402 11.369099 11.635774 12.014623
2.680000 10.471347 11.122429 11.468458 11.404812 11.666965 12.033447
2.700000 10.517643 11.152051 11.497294 11.439798 11.697764 12.051819
2.720000 10.580406 11.200147 11.534485 11.475404 11.740295 12.076215
2.740000 10.606563 11.235330 11.562780 11.510484 11.774879 12.106522
2.760000 10.630398 11.270306 11.593794 11.542856 11.798158 12.138610
2.780000 10.665667 11.314547 11.627921 11.575379 11.830848 12.167207
2.800000 10.694379 11.349696 11.658564 11.607333 11.856799 12.200227
2.820000 10.747951 11.373007 11.688079 11.638600 11.889945 12.221713
2.840000 10.772418 11.406540 11.717608 11.670277 11.916338 12.252411
2.860000 10.790433 11.426028 11.754379 11.700938 11.946912 12.284233
2.880000 10.820047 11.455807 11.780446 11.730913 11.972470 12.307968
2.900000 10.840725 11.486141 11.812820 11.761547 12.005332 12.342389
2.920000 10.874156 11.525577 11.843179 11.792505 12.038380 12.358478
2.940000 10.920213 11.556225 11.875929 11.823582 12.070946 12.377946
2.960000 10.961680 11.593352 11.908330 11.854977 12.098668 12.398434
2.980000 11.007955 11.625748 11.940807 11.886803 12.135080 12.425131
3.000000 11.035125 11.649256 11.973678 11.916894 12.159173 12.450136
3.020000 11.075047 11.690877 12.004909 11.947815 12.184644 12.481989
3.040000 11.118232 11.718611 12.032585 11.979012 12.216834 12.511971
3.060000 11.151980 11.753235 12.063485 12.010957 12.247525 12.536877
3.080000 11.171593 11.784270 12.099610 12.042459 12.276755 12.561174
3.100000 11.212761 11.818408 12.130273 12.073252 12.301815 12.587653
3.120000 11.243727 11.846233 12.159561 12.105144 12.330521 12.614685
3.140000 11.271281 11.883154 12.197402 12.137459 12.367472 12.637136
3.160000 11.299789 11.913521 12.231856 12.169130 12.393006 12.666279
3.180000 11.321891 11.948901 12.262625 12.200352 12.422615 12.695828
3.200000 11.353726 11.983645 12.298128 12.232336 12.446683 12.718923
3.220000 11.383786 12.021395 12.330906 12.264561 12.479703 12.745635
3.240000 11.412250 12.061901 12.362884 12.296364 12.506391 12.772253
3.260000 11.444924 12.096358 12.391979 12.326119 12.536816 12.797968
3.280000 11.475271 12.124243 12.423684 12.356726 12.564180 12.825419
3.300000 11.504117 12.157780 12.455868 12.387207 12.589392 12.844340
3.320000 11.552058 12.194572 12.487183 12.419075 12.616342 12.874878
3.340000 11.585622 12.231410 12.518332 12.451393 12.646600 12.897926
3.360000 11.615640 12.269589 12.550026 12.483227 12.674989 12.936753
3.380000 11.648635 12.305205 12.580117 12.514360 12.704218 12.961360
3.400000 11.682797 12.342971 12.609704 12.545797 12.738660 12.990531
3.420000 11.734333 12.374218 12.639681 12.577216 12.769980 13.020566
3.440000 11.767345 12.410173 12.668118 12.608435 12.804418 13.053418
3.460000 11.798367 12.451754 12.701991 12.639896 12.838630 13.080979
3.480000 11.839142 12.475050 12.730717 12.670719 12.864674 13.109864
3.500000 11.863503 12.507553 12.765313 12.702303 12.897927 13.139496
3.520000 11.889682 12.552425 12.793958 12.733240 12.926256 13.162288
3.540000 11.911540 12.587480 12.821145 12.764842 12.957644 13.186722
3.560000 11.942997 12.623983 12.851911 12.797348 12.993103 13.215128
3.580000 11.963964 12.661904 12.884523 12.829408 13.025601 13.247509
3.600000 12.000286 12.706214 12.916380 12.860654 13.056537 13.278699
3.620000 12.029008 12.736733 12.942600 12.890463 13.089555 13.300670
3.640000 12.064105 12.768680 12.972334 12.920907 13.119909 13.332214
3.660000 12.097954 12.796794 13.001646 12.951552 13.150333 13.357873
3.680000 12.115271 12.821669 13.032613 12.982471 13.180059 13.388632
3.700000 12.153469 12.845967 13.063171 13.012510 13.209445 13.413830
3.720000 12.177611 12.873877 13.089555 13.042579 13.242172 13.451189
3.760000 12.279244 12.918832 13.146373 13.098135 13.305817 13.509463
3.780000 12.318692 12.952994 13.177742 13.128621 13.335657 13.539138
3.800000 12.345865 12.983007 13.207379 13.158226 13.366347 13.575010
3.820000 12.373858 13.015503 13.235288 13.187836 13.399541 13.601701
3.840000 12.384835 13.042831 13.267381 13.218635 13.425721 13.635457
3.860000 12.423508 13.075133 13.298594 13.250078 13.456414 13.667663
3.880000 12.453151 13.099827 13.331660 13.281131 13.486446 13.703073
3.900000 12.499929 13.127140 13.362202 13.312154 13.517020 13.750666
3.920000 12.540530 13.155343 13.393287 13.342283 13.546554 13.800203
3.940000 12.575968 13.178200 13.422323 13.372375 13.575122 13.824950
3.960000 12.605059 13.204095 13.453234 13.402669 13.602793 13.855136
3.980000 12.648820 13.231022 13.483905 13.433154 13.642663 13.888046
4.000000 12.685465 13.256804 13.512972 13.464842 13.683784 13.926866
4.010000 12.705756 13.271122 13.530569 13.482233 13.702091 13.936943
4.020000 12.723853 13.283539 13.547591 13.499981 13.715023 13.955202
4.040000 12.761913 13.319163 13.579493 13.535372 13.746643 13.989261
4.060000 12.824713 13.352104 13.613580 13.569470 13.784855 14.011991
4.203333 13.140268 13.534201 13.789740 13.755874 13.969564 14.189011
4.346667 13.298383 13.703569 13.963171 13.931912 14.162721 14.382583
4.490000 13.484375 13.878697 14.132553 14.114581 14.355506 14.620665
4.510000 13.516819 13.912859 14.164697 14.146644 14.384345 14.654673
4.635000 13.655396 14.063472 14.337687 14.318151 14.571660 14.881580
4.760000 13.847079 14.219566 14.497078 14.485247 14.743261 15.070570
4.885000 13.978328 14.382765 14.657163 14.645981 14.929981 15.254066
5.010000 14.094158 14.533099 14.816169 14.813828 15.110907 15.465232
5.113333 14.256188 14.667387 14.963749 14.964363 15.278665 15.637743
5.216667 14.404326 14.788615 15.108186 15.118427 15.450057 15.868645
5.320000 14.537902 14.915812 15.254124 15.274054 15.620639 16.099002
5.435000 14.662911 15.053541 15.399751 15.447099 15.818941 16.409419
5.550000 14.825896 15.187305 15.559727 15.615308 16.014548 16.792794
5.665000 14.929643 15.326187 15.716267 15.788948 16.235574 17.068827
5.780000 15.100923 15.452304 15.891890 15.976904 16.433473 17.368513
5.820000 15.169649 15.509974 15.958213 16.050616 16.519201 17.505969
5.910000 15.294634 15.651702 16.115920 16.265299 16.819793 18.065661
6.000000 15.437087 15.797427 16.310814 16.503307 17.145963 18.883198
6.010000 15.454462 15.818816 16.338523 16.527770 17.177108 18.902774
6.115000 15.685870 16.072372 16.666102 16.881670 17.561516 19.710890
6.220000 15.913609 16.353061 16.990212 17.237965 18.029448 20.356622
6.330000 16.217695 16.722400 17.469848 17.735715 18.636392 21.071405
6.440000 16.499695 17.050218 17.951617 18.242877 19.399361 22.626754
6.460000 16.559976 17.096121 18.016879 18.302745 19.466152 22.749659
6.520000 16.747988 17.336454 18.240983 18.575912 19.725876 22.940418
6.540000 16.793488 17.397004 18.306865 18.635719 19.757534 23.003149
6.560000 16.856257 17.443450 18.362331 18.694211 19.826134 23.049397
6.580000 16.901834 17.501846 18.412551 18.751563 19.887477 23.121220
6.600000 16.953365 17.549749 18.474833 18.810314 19.958769 23.177855
6.620000 17.013904 17.615963 18.541263 18.873335 20.017675 23.226643
6.660000 17.147018 17.780990 18.724074 19.057897 20.204270 23.434878
6.680000 17.201677 17.841802 18.782534 19.123421 20.267561 23.550500
6.740000 17.392785 18.107156 19.143500 19.459985 20.791301 23.897411
6.760000 17.446319 18.177826 19.227837 19.526940 20.833645 23.989987
6.900000 18.727096 19.662245 20.838712 21.024104 22.249014 24.859994
6.960000 18.998096 19.926287 21.061199 21.290051 22.576606 25.075507
6.980000 19.077861 19.995281 21.122993 21.358171 22.627266 25.153417
7.080000 20.303129 21.272181 22.442924 22.524919 23.662213 25.657694
7.180000 21.463704 22.456803 23.527675 23.592111 24.650718 26.191099
7.280000 22.392999 23.689817 24.729662 24.690285 25.694670 26.871785
7.380000 23.424346 24.918295 25.846782 25.799679 26.799826 27.544200
7.460000 23.907090 25.681275 26.621162 26.466829 27.336414 27.965321
7.540000 24.479391 26.323147 27.270074 27.095169 27.919881 28.302566
7.580000 24.599541 26.481285 27.433819 27.261311 28.073282 28.405506
7.620000 24.718873 26.668086 27.609930 27.425284 28.217566 28.526979
7.640000 24.834127 26.746686 27.682588 27.490538 28.287224 28.580745
7.680000 25.306693 26.998244 27.860232 27.689025 28.414427 28.682828
7.700000 25.393141 27.063894 27.934026 27.756093 28.470857 28.715304
7.740000 25.972765 27.354514 28.119174 27.962265 28.573761 28.795281
7.780000 26.572082 27.626463 28.282155 28.158600 28.669875 28.902548
7.800000 26.655850 27.719436 28.362102 28.224760 28.718465 28.954413
7.820000 26.720978 27.790570 28.426785 28.284231 28.761853 28.985980
7.840000 26.794834 27.871970 28.484694 28.346433 28.806577 29.031072
7.860000 26.903072 27.940841 28.550798 28.409126 28.853860 29.072476
7.880000 27.075338 28.016259 28.601099 28.468257 28.893372 29.104965
7.920000 27.557474 28.343797 28.711737 28.646728 28.981160 29.197021
7.940000 27.627452 28.401566 28.767956 28.704905 29.019041 29.236934
7.960000 27.754159 28.467985 28.816115 28.760783 29.068317 29.278810
8.000000 28.231162 28.600145 28.925525 28.888811 29.161773 29.375384
