depth(m) lower_95(kyr) lower_68(kyr) median(kyr) mean(kyr) upper_68(kyr) upper_95(kyr)
0.000000 0.395632 0.576064 0.787069 0.777805 0.972626 1.136489
0.010000 0.410805 0.595462 0.806923 0.797495 0.990866 1.158287
0.050000 0.498305 0.685884 0.898690 0.896244 1.098262 1.309219
0.100000 0.579753 0.784516 1.013653 1.036937 1.290114 1.578995
0.140000 0.662872 0.844658 1.101378 1.134510 1.400767 1.813930
0.150000 0.679019 0.865502 1.121531 1.156076 1.425348 1.857023
0.180000 0.737805 0.933908 1.190676 1.235347 1.527080 2.047998
0.220000 0.800175 1.005794 1.282572 1.353662 1.710663 2.279873
0.250000 0.851710 1.061902 1.348707 1.429435 1.801210 2.475323
0.260000 0.865089 1.081642 1.366216 1.450837 1.827693 2.504991
0.300000 0.913720 1.155897 1.463241 1.574976 1.977203 2.950261
0.320000 0.940855 1.186938 1.505001 1.621078 2.026391 3.020929
0.340000 0.966117 1.220503 1.541580 1.666998 2.092254 3.169904
0.350000 0.974814 1.236961 1.567111 1.687827 2.114503 3.212243
0.360000 0.993615 1.255966 1.583541 1.709250 2.139628 3.232781
0.380000 1.019344 1.290152 1.633676 1.760973 2.209435 3.308130
0.400000 1.039212 1.325274 1.684976 1.813175 2.275990 3.456720
0.420000 1.062976 1.371203 1.725145 1.866555 2.333980 3.509235
0.440000 1.088207 1.406892 1.774219 1.920096 2.406437 3.562376
0.460000 1.119532 1.443684 1.818619 1.972487 2.492985 3.661749
0.480000 1.150839 1.481016 1.865680 2.025883 2.569263 3.775061
0.500000 1.183452 1.517618 1.926562 2.078672 2.639656 3.929539
0.530000 1.234278 1.577167 2.005462 2.177711 2.741758 4.278698
0.540000 1.245178 1.597567 2.027665 2.200303 2.783340 4.309950
0.570000 1.279214 1.658788 2.114709 2.295774 2.907106 4.447019
0.580000 1.293038 1.679691 2.139845 2.318507 2.926803 4.469040
0.600000 1.322308 1.717772 2.190176 2.370279 2.981459 4.550762
0.620000 1.350696 1.761948 2.235408 2.423886 3.048597 4.596156
0.640000 1.393598 1.800754 2.288316 2.475921 3.111356 4.658217
0.650000 1.420765 1.819967 2.310693 2.498070 3.138693 4.668448
0.660000 1.438977 1.843137 2.341507 2.519938 3.154299 4.681407
0.680000 1.472504 1.878216 2.389869 2.568196 3.203356 4.767885
0.730000 1.547317 1.993795 2.530907 2.729074 3.441878 4.917988
0.740000 1.565606 2.019333 2.556269 2.751451 3.479630 4.940861
0.780000 1.613695 2.102831 2.672894 2.858903 3.627983 5.045621
0.860000 1.740597 2.286715 2.935046 3.161744 4.153256 5.538302
0.900000 1.788685 2.370529 3.022904 3.268077 4.276882 5.684125
0.940000 1.843310 2.459918 3.102587 3.368100 4.412470 5.821423
0.950000 1.866146 2.477252 3.125689 3.388479 4.431338 5.846874
0.980000 1.920290 2.535677 3.189407 3.451681 4.489919 5.912066
1.020000 1.991974 2.611622 3.276445 3.543493 4.572471 6.033460
1.060000 2.042927 2.688944 3.377874 3.638099 4.675344 6.166314
1.140000 2.204319 2.908426 3.611611 3.864593 4.991878 6.519393
1.260000 2.364318 3.205758 4.167687 4.307608 5.516344 7.147243
1.380000 2.543512 3.485319 4.652477 4.743203 6.068194 7.613576
1.420000 2.596285 3.568485 4.783560 4.843161 6.193952 7.697154
1.460000 2.684907 3.665482 4.901336 4.938276 6.292438 7.788796
1.480000 2.725105 3.702874 4.939656 4.982761 6.335823 7.847264
1.530000 2.830430 3.828415 5.100987 5.121040 6.488212 7.974180
1.580000 2.972412 3.974287 5.233726 5.269947 6.657363 8.086948
1.620000 3.062391 4.078638 5.342262 5.385473 6.785508 8.195327
1.700000 3.403708 4.410217 5.714772 5.773301 7.180419 8.777689
1.740000 3.520443 4.528839 5.833620 5.893278 7.320868 8.954747
1.780000 3.637713 4.644393 5.952483 6.008535 7.464951 9.036234
1.820000 3.763125 4.749772 6.036896 6.123276 7.585552 9.120725
1.850000 3.839243 4.819308 6.112024 6.200286 7.676275 9.195597
1.860000 3.868943 4.845148 6.135793 6.223037 7.685849 9.226734
1.900000 4.048223 5.015403 6.244612 6.368227 7.791852 9.302186
1.940000 4.243107 5.189362 6.382960 6.510680 7.890044 9.376830
1.950000 4.270805 5.212799 6.396740 6.533746 7.906164 9.393939
1.980000 4.375953 5.306298 6.476300 6.616356 7.985151 9.459445
2.020000 4.541225 5.417289 6.592390 6.740777 8.098611 9.514593
2.060000 4.724107 5.561380 6.689548 6.859715 8.184522 9.596014
2.100000 4.828998 5.665974 6.786513 6.966402 8.292117 9.669433
2.140000 4.980277 5.781371 6.872742 7.069819 8.416087 9.730492
2.180000 5.112229 5.888701 6.993771 7.169354 8.509192 9.822247
2.312500 5.502683 6.531676 7.603867 7.726917 8.988552 10.311845
2.445000 5.903251 7.115354 8.230566 8.307359 9.673909 10.724385
2.577500 6.391372 7.653591 8.762635 8.863533 10.304724 11.193713
2.710000 6.714285 8.136332 9.253750 9.400158 10.933215 11.659947
2.750000 6.785019 8.233444 9.321303 9.490749 11.029510 11.746500
2.790000 6.870160 8.289713 9.416693 9.577016 11.117380 11.885777
2.830000 6.956168 8.367303 9.495417 9.659268 11.187883 11.951381
2.870000 7.059906 8.430528 9.584095 9.739894 11.267209 12.010328
2.910000 7.142152 8.509389 9.666140 9.816382 11.352309 12.130426
2.950000 7.245095 8.579242 9.728377 9.890741 11.415980 12.181011
3.053333 7.555444 8.782759 9.943496 10.086200 11.557851 12.287578
3.156667 7.927466 8.980241 10.180552 10.284621 11.700289 12.477771
3.260000 8.208355 9.199467 10.385097 10.477995 11.840294 12.645392
3.395455 8.467010 9.459302 10.650025 10.728767 11.995167 12.858182
3.530909 8.795345 9.745480 10.918494 10.972398 12.195252 13.071843
3.666364 9.013703 10.039781 11.168385 11.223703 12.440301 13.260684
3.801818 9.352759 10.300590 11.452378 11.465933 12.648789 13.513654
3.937273 9.613522 10.589847 11.706489 11.702671 12.842415 13.716889
4.072727 9.889990 10.870799 11.937369 11.942717 13.052088 13.919601
4.208182 10.223252 11.103430 12.167928 12.184499 13.268342 14.140182
4.343636 10.548420 11.386230 12.373266 12.412960 13.467540 14.366283
4.479091 10.798757 11.647317 12.613762 12.643401 13.682788 14.525097
4.614545 11.041471 11.904359 12.831754 12.871417 13.893460 14.718673
4.750000 11.297292 12.163940 13.066694 13.103146 14.100310 14.991193
4.894615 11.545584 12.454330 13.319869 13.351628 14.356862 15.243451
5.039231 11.798227 12.696971 13.565271 13.603440 14.590393 15.452854
5.183846 12.031908 12.950353 13.840882 13.850895 14.833450 15.730812
5.328462 12.217797 13.192680 14.070037 14.093735 15.060633 16.049525
5.473077 12.502231 13.410200 14.304114 14.332253 15.299888 16.246588
5.617692 12.669838 13.638771 14.536623 14.573821 15.558540 16.503809
5.762308 12.962993 13.882446 14.785301 14.820709 15.808805 16.731598
5.906923 13.191352 14.143101 15.015491 15.070638 16.078068 16.990258
6.051538 13.510835 14.412176 15.283798 15.316292 16.279240 17.176535
6.196154 13.764033 14.644929 15.532881 15.566840 16.543202 17.408557
6.340769 13.981205 14.896708 15.788657 15.821067 16.778447 17.614805
6.485385 14.224993 15.148450 16.023566 16.067293 17.000254 17.867823
6.630000 14.508934 15.416484 16.329612 16.316222 17.214057 18.075092
6.774615 14.785514 15.651237 16.579717 16.561475 17.467052 18.314710
6.919231 15.055570 15.908017 16.804246 16.812341 17.738826 18.572632
7.063846 15.313694 16.165874 17.050299 17.058843 17.964717 18.804457
7.208462 15.575857 16.402150 17.295514 17.305398 18.232756 19.025804
7.353077 15.862178 16.659344 17.547178 17.555800 18.473579 19.272381
7.497692 16.108040 16.968966 17.796577 17.803915 18.711236 19.464279
7.642308 16.345821 17.218039 18.040835 18.065615 18.966497 19.713365
7.786923 16.648007 17.458607 18.304396 18.321863 19.225926 19.975584
7.931538 16.866186 17.710010 18.575016 18.569968 19.467426 20.219831
8.076154 17.221314 17.980644 18.825638 18.812565 19.674433 20.442174
8.220769 17.415543 18.215867 19.074517 19.059791 19.915968 20.670001
8.365385 17.560474 18.464319 19.299825 19.304938 20.188119 20.899830
8.510000 17.783855 18.706434 19.525786 19.542552 20.424902 21.129247
8.654615 18.050386 18.956126 19.780806 19.791298 20.693298 21.408272
8.799231 18.322517 19.211271 20.027207 20.041239 20.923588 21.631965
8.943846 18.587368 19.452985 20.249361 20.278858 21.129258 21.854948
9.088462 18.909478 19.695714 20.521846 20.521192 21.341661 22.154889
9.233077 19.107220 19.933966 20.778292 20.771464 21.611425 22.421790
9.377692 19.383053 20.210971 21.020896 21.023912 21.882153 22.619553
9.522308 19.667959 20.424755 21.280419 21.271661 22.128976 22.845588
9.666923 19.952238 20.696395 21.531101 21.521462 22.355287 23.102249
9.811538 20.217173 20.963395 21.798140 21.773383 22.608486 23.334877
9.956154 20.432883 21.206618 22.038159 22.020695 22.845460 23.608863
10.100769 20.751554 21.449140 22.289481 22.266917 23.069094 23.810142
10.245385 21.024385 21.711240 22.536003 22.511655 23.320453 24.037136
10.390000 21.236823 21.988095 22.774631 22.761284 23.550132 24.303024
10.534615 21.485621 22.232183 23.027217 23.009407 23.786191 24.546515
10.679231 21.764044 22.465877 23.277992 23.254915 24.036565 24.779872
10.823846 21.990548 22.735211 23.499061 23.502932 24.296413 24.962964
10.968462 22.204795 22.989173 23.718838 23.741141 24.520484 25.213183
11.113077 22.460747 23.256177 23.975980 23.988056 24.748570 25.423212
11.257692 22.753846 23.491499 24.229218 24.240903 24.993687 25.656450
11.402308 23.058660 23.748522 24.487037 24.484139 25.224247 25.879552
11.546923 23.289423 23.988686 24.759737 24.729044 25.459352 26.126985
11.691538 23.556487 24.236771 25.002375 24.976141 25.692117 26.399541
11.836154 23.840326 24.494934 25.249801 25.224055 25.923503 26.652436
11.980769 24.072048 24.739225 25.464240 25.467784 26.189662 26.862474
12.125385 24.297009 25.000471 25.725495 25.715934 26.446054 27.083511
12.270000 24.583702 25.267129 25.963553 25.957632 26.685763 27.329070
12.414615 24.842328 25.520927 26.210834 26.204119 26.909389 27.606096
12.559231 25.091622 25.770967 26.454322 26.446386 27.148638 27.841568
12.703846 25.333053 26.030668 26.678482 26.688192 27.384912 28.086401
12.848462 25.561883 26.287601 26.938375 26.940214 27.648826 28.279755
12.993077 25.848759 26.527122 27.169951 27.182619 27.886110 28.466487
13.137692 26.054741 26.755966 27.420300 27.424825 28.116047 28.679915
13.282308 26.361954 27.005531 27.687709 27.663988 28.329098 28.951996
13.426923 26.595455 27.216888 27.932583 27.907878 28.564703 29.296215
13.571538 26.845337 27.478552 28.174015 28.152543 28.814213 29.554073
13.716154 27.098914 27.730316 28.418472 28.408119 29.065290 29.732697
13.860769 27.340376 27.981752 28.673616 28.654609 29.311420 30.008089
14.005385 27.633965 28.237919 28.920262 28.910325 29.563452 30.203951
14.150000 27.862527 28.523190 29.178577 29.166569 29.827789 30.398477
14.294615 28.120321 28.760328 29.442780 29.411552 30.077888 30.614752
14.439231 28.331346 29.020390 29.663858 29.646697 30.291695 30.911200
14.583846 28.538045 29.239800 29.906725 29.886587 30.549080 31.142262
14.728462 28.803343 29.468868 30.163205 30.130237 30.774928 31.359313
14.873077 29.029286 29.718035 30.403979 30.376164 31.025005 31.573604
15.017692 29.331176 30.001971 30.637584 30.628326 31.258020 31.820252
15.162308 29.588571 30.234914 30.889243 30.877044 31.498884 32.083648
15.306923 29.838535 30.499442 31.132054 31.120894 31.740576 32.370903
15.451538 30.087713 30.745774 31.384836 31.363391 31.991050 32.569701
15.596154 30.388168 30.982252 31.631714 31.618275 32.248566 32.909004
15.740769 30.628250 31.227283 31.844803 31.866735 32.517894 33.095555
15.885385 30.913638 31.469512 32.119480 32.122343 32.779386 33.349405
16.030000 31.161851 31.720644 32.353910 32.374415 33.030994 33.656897
16.174615 31.375244 31.957627 32.606388 32.615415 33.265853 33.850033
16.319231 31.631525 32.193514 32.862412 32.854605 33.497785 34.094209
16.463846 31.875597 32.434743 33.105333 33.102368 33.749927 34.334142
16.608462 32.119538 32.709352 33.342413 33.350539 33.998042 34.640167
16.753077 32.379587 32.934585 33.599323 33.599591 34.276422 34.863794
16.897692 32.572878 33.172065 33.864542 33.851185 34.528405 35.088371
17.042308 32.853048 33.421075 34.096317 34.099305 34.783990 35.355832
17.186923 33.135071 33.695459 34.351232 34.350230 35.029539 35.649110
17.331538 33.354938 33.941253 34.598934 34.594985 35.256817 35.868743
17.476154 33.579911 34.178336 34.839538 34.838844 35.500904 36.150793
17.620769 33.841747 34.414434 35.086103 35.089293 35.753745 36.412334
17.765385 34.057597 34.666704 35.325232 35.327870 36.005000 36.617646
17.910000 34.330023 34.926551 35.582125 35.578808 36.253632 36.851584
18.054615 34.570027 35.183784 35.819776 35.826842 36.483530 37.067405
18.199231 34.812861 35.443113 36.091711 36.077975 36.739965 37.323920
18.343846 35.044340 35.676310 36.333315 36.327115 36.985491 37.560468
18.488462 35.296431 35.920253 36.562063 36.570315 37.257876 37.822891
18.633077 35.512012 36.169970 36.825845 36.822296 37.498373 38.043783
18.777692 35.764276 36.421250 37.072997 37.065511 37.745077 38.298044
18.922308 36.029425 36.637142 37.317085 37.309690 37.975490 38.502420
19.066923 36.220307 36.873427 37.560982 37.548716 38.209455 38.824637
19.211538 36.512128 37.131062 37.830127 37.799241 38.445713 39.076209
19.356154 36.728202 37.384626 38.059298 38.045052 38.711574 39.345804
19.500769 36.938809 37.624341 38.309421 38.285117 38.965212 39.597694
19.645385 37.195609 37.854131 38.528229 38.527837 39.202230 39.835925
19.790000 37.484898 38.086974 38.754259 38.771757 39.438751 40.094698
19.934615 37.704080 38.320458 39.002762 39.018536 39.698551 40.361730
20.079231 37.980814 38.585727 39.253336 39.268604 39.953033 40.621987
20.223846 38.211437 38.819731 39.525713 39.519901 40.206733 40.875987
20.368462 38.468890 39.048097 39.757117 39.765445 40.440823 41.092915
20.513077 38.725030 39.306228 40.005178 40.006927 40.695347 41.327468
20.657692 38.947689 39.539845 40.260691 40.252254 40.944248 41.544519
20.802308 39.264684 39.808934 40.500009 40.502158 41.181061 41.793689
20.946923 39.559187 40.063886 40.726732 40.741813 41.400104 42.036458
21.091538 39.805470 40.320615 40.972692 40.979439 41.636742 42.178967
21.236154 40.042395 40.546236 41.209219 41.220638 41.877615 42.392873
21.380769 40.324130 40.806559 41.465401 41.460162 42.088695 42.654895
21.525385 40.572204 41.056646 41.707390 41.698176 42.334859 42.875358
21.670000 40.796043 41.325734 41.926696 41.941500 42.561746 43.083431
