depth(m) lower_95(kyr) lower_68(kyr) median(kyr) mean(kyr) upper_68(kyr) upper_95(kyr)
0.050000 0.006441 0.030956 0.107085 0.130736 0.231647 0.366656
0.100000 0.098277 0.159973 0.264096 0.272556 0.382350 0.507112
0.150000 0.212103 0.292693 0.400632 0.409167 0.518845 0.663432
0.170000 0.266406 0.357454 0.463494 0.475493 0.591148 0.736009
0.200000 0.347992 0.459636 0.581012 0.593272 0.723335 0.911670
0.250000 0.472720 0.596257 0.763271 0.801759 0.969967 1.306507
0.300000 0.588104 0.744738 0.949815 1.012263 1.275098 1.791813
0.350000 0.716938 0.895473 1.141458 1.223655 1.550636 2.193735
0.400000 0.845992 1.054258 1.329089 1.430916 1.822104 2.595720
0.450000 0.983060 1.218467 1.536056 1.647411 2.079031 3.054702
0.490000 1.100553 1.361127 1.722356 1.831015 2.299771 3.216054
0.540000 1.269903 1.549732 1.951003 2.066211 2.576842 3.526423
0.590000 1.438451 1.727476 2.194924 2.306911 2.850297 3.878738
0.640000 1.619111 1.902902 2.437136 2.534961 3.139555 4.138961
0.690000 1.769394 2.099876 2.660858 2.761521 3.393802 4.395904
0.740000 1.946414 2.298746 2.905370 2.992844 3.665752 4.700768
0.790000 2.110376 2.493015 3.139085 3.219987 3.890737 5.032609
0.840000 2.288487 2.738690 3.371802 3.464778 4.178401 5.206755
0.890000 2.464859 2.984259 3.634748 3.710026 4.391215 5.464116
0.940000 2.617279 3.238382 3.889752 3.969954 4.649161 5.711564
0.990000 2.809017 3.454909 4.172259 4.222737 4.937455 5.952747
1.030000 2.963220 3.665762 4.374590 4.421915 5.126145 6.217632
1.080000 3.146485 3.890812 4.604831 4.651854 5.368915 6.490794
1.130000 3.332255 4.114250 4.822822 4.862947 5.585512 6.750907
1.180000 3.505541 4.291979 5.036137 5.065522 5.809200 6.966124
1.230000 3.696365 4.471544 5.263673 5.267926 6.042509 7.156642
1.280000 3.822666 4.638792 5.452466 5.468428 6.256939 7.404640
1.330000 4.025154 4.853717 5.666898 5.674094 6.464287 7.584327
1.380000 4.169653 5.046698 5.892459 5.879753 6.647173 7.752407
1.430000 4.374205 5.237112 6.115304 6.092847 6.856150 7.917596
1.500000 4.705109 5.504539 6.425575 6.410368 7.172052 8.200810
1.550000 4.895842 5.750360 6.660680 6.645486 7.393952 8.403866
1.600000 5.183787 5.994786 6.906031 6.883969 7.612872 8.643898
1.650000 5.456831 6.294075 7.155826 7.127260 7.860214 8.976362
1.700000 5.745135 6.547365 7.397483 7.374012 8.106768 9.279262
1.750000 5.972713 6.850104 7.676644 7.643028 8.369511 9.526341
1.800000 6.201801 7.135031 7.938663 7.910911 8.635573 9.762362
1.850000 6.384298 7.441633 8.249605 8.200533 8.951964 9.925887
1.900000 6.639746 7.734676 8.481860 8.458074 9.192817 10.098820
2.010000 7.358119 8.331318 9.039420 9.017247 9.734372 10.562332
2.030000 7.434609 8.413438 9.129791 9.112389 9.815788 10.656347
2.080000 7.754706 8.682966 9.384432 9.351489 10.017161 10.807432
2.130000 7.992981 8.920984 9.653335 9.594951 10.257378 10.988239
2.180000 8.356011 9.189160 9.902865 9.853127 10.496497 11.171462
2.255000 8.916383 9.664471 10.299451 10.264792 10.860926 11.481233
2.330000 9.534030 10.104660 10.703493 10.686978 11.251847 11.785347
2.380000 9.840210 10.397649 10.985417 10.960557 11.520179 11.969202
2.430000 10.162099 10.716453 11.272242 11.249984 11.786552 12.138617
2.480000 10.547392 11.061424 11.607245 11.562718 12.067986 12.426709
2.510000 10.772086 11.284776 11.785499 11.758640 12.255023 12.579898
2.560000 11.262251 11.681416 12.124938 12.111859 12.534745 12.817204
2.610000 11.678595 12.054122 12.453998 12.434227 12.822698 13.137411
2.660000 12.036164 12.361438 12.732509 12.723574 13.084112 13.390210
2.710000 12.297577 12.617956 13.000373 12.993972 13.352062 13.710039
2.760000 12.578643 12.906278 13.288925 13.271719 13.626198 13.920322
2.810000 12.877415 13.201986 13.572233 13.562729 13.921153 14.230023
2.860000 13.174562 13.503426 13.866335 13.860164 14.209338 14.531479
2.910000 13.491920 13.809438 14.182459 14.165173 14.501089 14.795322
3.000000 14.048219 14.471891 14.775307 14.767914 15.079446 15.400627
3.050000 14.379740 14.760670 15.055854 15.049230 15.337130 15.666636
3.100000 14.748149 15.093819 15.371250 15.367876 15.641477 15.966038
3.150000 15.120519 15.409638 15.714375 15.721657 16.027613 16.436361
3.200000 15.497651 15.827471 16.169071 16.210448 16.602960 17.105830
3.250000 16.185439 16.560897 17.056467 17.079118 17.569002 18.109710
3.300000 16.633578 17.033203 17.587340 17.606656 18.197633 18.697221
3.350000 16.970361 17.422059 18.028853 18.040413 18.642349 19.255288
3.400000 17.260993 17.773722 18.399184 18.416449 19.050318 19.693225
3.450000 17.530196 18.162884 18.767476 18.789145 19.390544 20.045440
3.500000 17.779709 18.535350 19.154669 19.161625 19.793776 20.414103
3.530000 18.015974 18.709591 19.338638 19.347115 19.994016 20.622657
3.580000 18.369650 19.037758 19.662391 19.650095 20.287407 20.924849
3.630000 18.684929 19.366784 20.003171 19.968723 20.596079 21.208169
3.680000 18.961785 19.710379 20.307055 20.270765 20.857894 21.442921
3.730000 19.297948 20.028954 20.641555 20.584429 21.118376 21.654701
3.780000 19.694191 20.352210 20.936520 20.888464 21.404373 21.907740
3.830000 20.070261 20.711269 21.249118 21.208814 21.682174 22.152012
3.880000 20.530955 21.063664 21.573118 21.525544 21.951765 22.346170
3.940000 21.054245 21.545400 21.955792 21.926559 22.313757 22.650560
3.980000 21.344273 21.806228 22.203404 22.177381 22.543593 22.844918
4.010000 21.537632 22.023510 22.396919 22.366322 22.712814 22.993147
4.060000 22.124134 22.467974 22.754929 22.740216 23.030886 23.238553
4.110000 22.644802 22.841306 23.076281 23.078556 23.311589 23.509673
4.120000 22.702937 22.900026 23.135020 23.134599 23.370814 23.573659
4.160000 22.895429 23.123205 23.375161 23.384999 23.635942 23.926413
4.210000 23.088929 23.394616 23.705586 23.723853 24.054109 24.532478
4.260000 23.316325 23.645234 24.040357 24.061441 24.449812 25.048599
4.310000 23.543864 23.914068 24.364409 24.389212 24.837983 25.435258
4.360000 23.737743 24.176322 24.688849 24.706811 25.222940 25.792958
4.410000 23.952714 24.448911 25.026607 25.023798 25.577376 26.164553
4.505000 24.338852 24.997544 25.667431 25.711391 26.361814 27.346897
4.600000 24.770050 25.593709 26.315246 26.401097 27.333157 28.281568
4.650000 25.022523 25.833447 26.589689 26.675793 27.638058 28.590459
4.700000 25.284478 26.060541 26.879657 26.951673 27.923935 28.851292
4.750000 25.510303 26.282946 27.145431 27.209621 28.185595 29.173253
4.800000 25.795614 26.508489 27.405151 27.459847 28.424753 29.440411
4.850000 26.038518 26.738636 27.665352 27.713907 28.646706 29.724108
4.900000 26.183671 26.971424 27.916366 27.947023 28.843148 30.080604
4.950000 26.387485 27.154516 28.124784 28.166459 29.084153 30.311861
5.000000 26.623395 27.348583 28.369057 28.382270 29.305610 30.594846
5.040000 26.813795 27.485561 28.568644 28.548525 29.490859 30.776442
5.090000 26.947902 27.651549 28.792731 28.757723 29.725317 31.031956
5.140000 27.114386 27.806048 28.983710 28.956072 29.959269 31.188120
5.190000 27.331414 27.965041 29.168518 29.153090 30.216773 31.383695
5.240000 27.455051 28.120625 29.378383 29.348412 30.436968 31.650802
5.290000 27.571026 28.248728 29.601516 29.539861 30.674203 31.826226
5.340000 27.739490 28.422424 29.823376 29.734283 30.902760 31.973311
5.390000 27.892853 28.590424 30.032490 29.921809 31.139448 32.137424
5.440000 28.041633 28.732231 30.212744 30.109865 31.346940 32.347708
5.490000 28.193739 28.892793 30.420145 30.299533 31.530739 32.557603
5.530000 28.314464 29.048594 30.575239 30.450743 31.701027 32.704075
5.580000 28.473487 29.255063 30.757130 30.627642 31.887613 32.883371
5.630000 28.629821 29.408507 30.916719 30.804707 32.026310 33.116430
5.680000 28.798372 29.572072 31.093366 30.983873 32.225961 33.311945
5.730000 28.950323 29.725789 31.283942 31.169071 32.414015 33.521255
5.780000 29.073035 29.901921 31.456422 31.348432 32.610189 33.673861
5.830000 29.233316 30.078182 31.611054 31.529316 32.794259 33.879567
5.880000 29.448869 30.298419 31.790183 31.710551 32.969707 34.052116
5.930000 29.594997 30.483009 31.959207 31.892055 33.135152 34.210881
6.000000 29.809907 30.754011 32.144809 32.148388 33.392205 34.499696
6.050000 29.928612 30.958665 32.323686 32.337930 33.578105 34.641425
6.100000 30.118729 31.133668 32.503394 32.525373 33.767960 34.864062
6.150000 30.281076 31.362634 32.665078 32.710215 33.915147 35.037420
6.200000 30.438085 31.563962 32.831967 32.900378 34.129083 35.200947
6.250000 30.653628 31.761565 33.037491 33.098504 34.355227 35.505250
6.300000 30.870447 31.987181 33.264510 33.315266 34.577542 35.725711
6.350000 31.100974 32.232718 33.497930 33.544905 34.798055 35.955898
