depth(m) lower_95(kyr) lower_68(kyr) median(kyr) mean(kyr) upper_68(kyr) upper_95(kyr)
0.100000 0.303369 0.525755 0.743753 0.736229 0.937941 1.138509
0.125000 0.442322 0.627487 0.836321 0.837441 1.046296 1.229125
0.200000 0.672148 0.902304 1.172344 1.197419 1.455783 1.963485
0.300000 0.944932 1.259093 1.639835 1.696463 2.120687 2.853169
0.400000 1.258977 1.651343 2.147640 2.224115 2.790293 3.660049
0.500000 1.576865 2.090215 2.681960 2.752448 3.416847 4.264429
0.600000 1.925546 2.561611 3.261582 3.312170 4.039586 5.062782
0.700000 2.358690 3.111154 3.836825 3.897674 4.664435 5.714948
0.800000 2.874942 3.704819 4.458731 4.511779 5.379776 6.319239
0.900000 3.282484 4.243726 5.088916 5.116371 6.000947 6.969996
1.000000 3.790403 4.817119 5.764978 5.727381 6.698754 7.520297
1.100000 4.324934 5.365973 6.417523 6.376170 7.367601 8.142119
1.200000 4.934465 6.017633 7.154233 7.063253 8.084458 8.788290
1.300000 5.637930 6.662741 7.915774 7.750939 8.746408 9.473776
1.350000 5.837962 6.954644 8.166896 8.013751 9.014979 9.791624
1.390000 6.022494 7.128805 8.361932 8.209836 9.199334 9.958402
1.450000 6.307047 7.458061 8.701503 8.531540 9.505483 10.286292
1.500000 6.525508 7.714617 8.970143 8.790137 9.768554 10.591940
1.510000 6.566460 7.749835 9.011374 8.833312 9.822286 10.617281
1.550000 6.746090 8.001202 9.197151 9.045284 10.012497 10.753672
1.600000 7.076662 8.286837 9.456826 9.320646 10.285040 10.967005
1.700000 8.399688 9.416583 10.382224 10.258485 11.058648 11.545894
1.800000 9.443520 10.393408 11.193075 11.078705 11.712958 12.146526
1.900000 10.484335 11.204187 11.779841 11.715776 12.226606 12.676183
2.000000 11.336463 11.871153 12.321852 12.306612 12.750233 13.152639
2.100000 12.103731 12.556995 12.954795 12.944362 13.341969 13.738614
2.200000 12.609550 13.071063 13.470622 13.449272 13.822009 14.176555
2.250000 12.797059 13.306087 13.712546 13.686346 14.076290 14.379895
2.300000 13.061524 13.562755 13.951663 13.924755 14.299519 14.628447
2.350000 13.248539 13.755726 14.164855 14.142146 14.520370 14.901194
2.400000 13.416983 14.022351 14.425574 14.390764 14.773558 15.178858
2.450000 13.610205 14.254767 14.671890 14.639501 15.029362 15.450310
2.490000 13.789375 14.421536 14.864775 14.828843 15.231853 15.667715
2.500000 13.836635 14.462167 14.903420 14.868207 15.265557 15.704745
2.550000 14.243368 14.719761 15.114699 15.103318 15.461289 15.874365
2.600000 14.660734 15.033724 15.344004 15.350692 15.667579 16.080948
2.650000 14.909564 15.268754 15.546010 15.563298 15.852231 16.263753
2.700000 15.210796 15.508969 15.770907 15.793376 16.068202 16.466528
2.750000 15.458545 15.733338 15.984834 16.015493 16.297310 16.715045
2.800000 15.660025 15.933451 16.211347 16.227109 16.505554 16.954909
2.850000 15.886943 16.116155 16.425024 16.454669 16.768561 17.243205
2.900000 16.039509 16.280919 16.642382 16.661410 17.029702 17.522263
2.950000 16.152565 16.461039 16.841663 16.868721 17.241941 17.814372
2.995000 16.248372 16.615603 17.051022 17.072316 17.497260 18.127550
3.050000 16.405957 16.789117 17.256076 17.314312 17.813448 18.661144
3.100000 16.518660 16.932108 17.439353 17.505789 18.066093 18.949876
3.150000 16.632906 17.045852 17.604024 17.685269 18.288877 19.202543
3.200000 16.732977 17.198566 17.767757 17.864186 18.491267 19.518196
3.250000 16.838925 17.324594 17.888234 18.025850 18.714991 19.791780
3.300000 16.942137 17.442454 18.042325 18.179056 18.905332 20.059769
3.350000 17.041071 17.578851 18.180228 18.332675 19.093550 20.311108
3.400000 17.153886 17.697493 18.311915 18.480809 19.278740 20.654488
3.450000 17.240846 17.818065 18.441137 18.624385 19.433945 20.887916
3.500000 17.358606 17.935337 18.559640 18.765306 19.595691 21.045913
3.550000 17.474203 18.055417 18.697379 18.904361 19.750676 21.227246
3.600000 17.591117 18.184461 18.863673 19.037879 19.895146 21.434847
3.700000 17.833967 18.399169 19.160504 19.279388 20.156146 21.809342
3.800000 18.120533 18.630637 19.422572 19.522033 20.412746 22.095826
3.900000 18.335975 18.867249 19.649423 19.765898 20.632139 22.359494
4.000000 18.530464 19.099459 19.909042 20.014676 20.893819 22.526903
4.100000 18.788804 19.351849 20.169350 20.271838 21.151359 22.712433
4.240500 19.075031 19.714708 20.505952 20.605409 21.456224 22.993506
4.381000 19.389336 20.016331 20.847074 20.927514 21.763436 23.167743
4.521500 19.738416 20.377785 21.160555 21.259269 22.062113 23.527111
4.662000 20.086576 20.747685 21.516214 21.579429 22.375433 23.722663
4.802500 20.415616 21.085002 21.852116 21.908483 22.688021 24.070880
4.943000 20.788824 21.430452 22.172336 22.243892 23.016816 24.300718
5.083500 21.205891 21.787184 22.503391 22.571052 23.330515 24.471263
5.224000 21.566228 22.122801 22.826793 22.898712 23.637534 24.654004
5.364500 21.918049 22.485147 23.187118 23.231292 23.936484 24.885384
5.505000 22.300345 22.876313 23.517318 23.564536 24.242625 25.166159
5.645500 22.629295 23.243636 23.864324 23.892739 24.545863 25.385462
5.786000 22.952269 23.608353 24.206403 24.224571 24.850835 25.598083
5.926500 23.354837 23.980286 24.523226 24.552831 25.151273 25.836556
6.067000 23.723564 24.333447 24.880425 24.889958 25.441421 26.082057
6.207500 24.109367 24.700704 25.201152 25.221777 25.742901 26.331319
6.348000 24.558308 25.070499 25.547490 25.548811 26.045266 26.530175
6.488500 24.946663 25.441353 25.886154 25.886050 26.344276 26.790632
6.629000 25.351639 25.835709 26.233395 26.231319 26.624255 27.012147
6.769500 25.894907 26.246754 26.577661 26.586458 26.918213 27.291892
6.910000 26.375959 26.683404 26.992781 26.989421 27.294640 27.586547
