depth(m) lower_95(kyr) lower_68(kyr) median(kyr) mean(kyr) upper_68(kyr) upper_95(kyr)
0.005000 0.468169 1.384569 2.307414 2.193270 2.927032 3.308800
0.012500 0.743813 1.567431 2.486487 2.371685 3.060231 3.473648
0.017500 0.923609 1.701691 2.599414 2.490810 3.162219 3.602062
0.022500 1.072583 1.863483 2.722961 2.610336 3.263408 3.691238
0.027500 1.221387 2.003810 2.832027 2.721582 3.357633 3.778549
0.032500 1.384562 2.128939 2.954606 2.835832 3.440373 3.839879
0.037500 1.540650 2.292715 3.070944 2.955776 3.518684 3.919051
0.042500 1.693581 2.429323 3.181013 3.074152 3.613371 4.002080
0.047500 1.887532 2.601087 3.290541 3.189812 3.705834 4.086645
0.052500 2.020004 2.760513 3.389197 3.302608 3.803309 4.173250
0.057500 2.156085 2.917822 3.515114 3.423472 3.912698 4.246751
0.062500 2.366495 3.068821 3.624915 3.540358 4.010124 4.338517
0.067500 2.590264 3.208104 3.731742 3.666875 4.092984 4.407557
0.072500 2.801838 3.372341 3.847948 3.792431 4.184199 4.503969
0.077500 3.027296 3.548479 3.966619 3.924694 4.286155 4.593965
0.085000 3.403101 3.820419 4.163624 4.138020 4.448531 4.730413
0.092500 3.767435 4.084619 4.358623 4.342201 4.589674 4.883257
0.097500 3.964937 4.245577 4.470200 4.472745 4.697975 4.992633
0.102500 4.156647 4.391133 4.595890 4.603381 4.812818 5.105898
0.105000 4.229164 4.452699 4.667203 4.671068 4.875824 5.172753
0.107500 4.293404 4.516354 4.745114 4.744375 4.962379 5.234445
0.112500 4.452987 4.670181 4.894371 4.913366 5.161144 5.463981
0.117500 4.620102 4.839553 5.074789 5.097740 5.360695 5.656406
0.122500 4.771875 5.006355 5.275020 5.295382 5.597313 5.875640
0.127500 4.950761 5.206096 5.491976 5.503573 5.814480 6.069421
0.132500 5.117317 5.421262 5.712915 5.716535 6.010615 6.273730
0.137500 5.385943 5.667348 5.948556 5.940395 6.216432 6.486000
0.142500 5.634860 5.898032 6.174796 6.167404 6.432373 6.666490
0.147500 5.876502 6.129286 6.388250 6.385035 6.623682 6.866643
0.152500 6.212482 6.390607 6.604960 6.607775 6.811876 7.048245
0.155000 6.327318 6.481399 6.706590 6.701449 6.903898 7.123347
0.157500 6.392650 6.562727 6.795378 6.790697 7.007951 7.236278
0.165000 6.656458 6.853989 7.146376 7.182281 7.507327 7.893188
0.172500 6.949679 7.214643 7.585135 7.598568 7.999413 8.351334
0.177500 7.081286 7.412256 7.783556 7.800410 8.206681 8.572609
0.182500 7.272559 7.612087 7.980096 7.995859 8.394349 8.770956
0.187500 7.477951 7.817275 8.178543 8.193998 8.587788 8.939644
0.192500 7.623801 8.007483 8.396124 8.391397 8.782394 9.102061
0.202500 8.467897 8.722133 8.999216 8.984769 9.233795 9.426998
0.205000 8.576942 8.822181 9.092254 9.076642 9.309835 9.525520
0.207500 8.656738 8.915862 9.173830 9.164326 9.405241 9.632855
0.222500 9.178162 9.508342 9.886388 9.920296 10.337618 10.776470
0.232500 9.589470 10.001613 10.422386 10.403679 10.799231 11.188557
0.237500 9.793698 10.228620 10.635640 10.612281 11.005472 11.345563
0.245000 10.241124 10.612593 10.954313 10.940518 11.249156 11.603487
0.252500 10.782560 11.019136 11.248360 11.270709 11.539273 11.826993
0.255000 10.859577 11.108923 11.337044 11.353258 11.613543 11.887147
0.257500 10.950375 11.188205 11.423862 11.435486 11.695352 11.952373
0.262500 11.097384 11.349554 11.591250 11.605493 11.866217 12.128744
0.267500 11.272021 11.538504 11.809408 11.806626 12.088751 12.307739
0.272500 11.472679 11.727328 11.991638 11.987260 12.254805 12.473614
0.277500 11.645007 11.918373 12.156749 12.151076 12.388826 12.589316
0.282500 11.825058 12.099246 12.317966 12.306024 12.532228 12.705714
0.287500 12.046631 12.264877 12.473700 12.463072 12.661865 12.822369
0.292500 12.210266 12.422174 12.606850 12.603723 12.788282 12.937414
0.297500 12.405919 12.611382 12.756559 12.757752 12.931348 13.076191
0.302500 12.604260 12.747854 12.898620 12.900473 13.053134 13.184025
0.305000 12.661219 12.817597 12.964037 12.962617 13.106189 13.243485
0.307500 12.723771 12.876374 13.019938 13.019263 13.161300 13.306239
0.312500 12.825084 12.974761 13.115936 13.115420 13.258555 13.408587
0.317500 12.912458 13.058405 13.201203 13.203495 13.354225 13.506992
0.325000 13.036418 13.179566 13.328635 13.327781 13.483159 13.629815
0.332500 13.140122 13.291099 13.451107 13.448496 13.610836 13.751216
0.337500 13.207449 13.375608 13.534371 13.531584 13.700380 13.823390
0.342500 13.288374 13.454298 13.621055 13.615400 13.776298 13.896272
0.347500 13.388916 13.536797 13.715067 13.704794 13.869576 13.978460
0.352500 13.452206 13.621501 13.811495 13.797246 13.957328 14.076666
0.355000 13.502400 13.680290 13.854960 13.846163 14.001237 14.119204
0.357500 13.550020 13.729147 13.905826 13.893083 14.050298 14.169591
0.362500 13.633205 13.813961 13.996545 13.979555 14.138599 14.247125
0.367500 13.713138 13.910590 14.076494 14.062988 14.214667 14.328548
0.372500 13.799592 13.990775 14.163272 14.145071 14.291310 14.403835
0.377500 13.879421 14.084276 14.246370 14.228671 14.372354 14.487156
0.382500 13.951055 14.174903 14.328212 14.309950 14.443142 14.566996
0.387500 14.039327 14.256586 14.407691 14.386813 14.512729 14.654670
0.392500 14.109932 14.328833 14.481478 14.463978 14.588644 14.715140
0.397500 14.201355 14.411697 14.552700 14.539102 14.663101 14.784513
0.405000 14.308999 14.519697 14.660193 14.646448 14.764846 14.886864
0.412500 14.426415 14.634905 14.765157 14.754855 14.869615 14.988416
0.417500 14.509830 14.717024 14.840316 14.831685 14.945993 15.068944
0.422500 14.605290 14.798615 14.915913 14.910782 15.023564 15.157871
0.427500 14.693846 14.877343 14.995839 14.993272 15.110535 15.260312
0.432500 14.799654 14.957628 15.080152 15.081441 15.202272 15.385323
0.437500 14.890263 15.032283 15.158895 15.168843 15.295378 15.521879
0.442500 14.981552 15.118733 15.242844 15.254525 15.390589 15.611960
0.447500 15.060808 15.201880 15.327469 15.343123 15.484358 15.716390
0.452500 15.135863 15.291426 15.418994 15.436083 15.592012 15.799822
0.455000 15.172714 15.333863 15.471920 15.487258 15.654518 15.854125
0.457500 15.223108 15.382766 15.532998 15.551601 15.729282 15.938264
0.462500 15.351842 15.507439 15.675259 15.691923 15.882459 16.106292
0.467500 15.445028 15.624426 15.808591 15.827286 16.031872 16.255537
0.472500 15.558863 15.731788 15.933742 15.955519 16.183796 16.453972
0.477500 15.644522 15.822938 16.050802 16.070720 16.328226 16.613424
0.485000 15.770032 15.950489 16.196215 16.220558 16.499833 16.785040
0.492500 15.897851 16.094943 16.332748 16.371234 16.678632 16.949454
0.497500 16.012389 16.191570 16.436429 16.474629 16.796567 17.052348
0.502500 16.112606 16.302991 16.539519 16.575078 16.880040 17.146980
0.522500 16.503579 16.702623 16.899895 16.930703 17.197925 17.421958
0.527500 16.626652 16.844156 17.066467 17.074825 17.329881 17.522761
0.532500 16.735010 16.985653 17.231549 17.214010 17.453751 17.614728
0.537500 16.851273 17.108688 17.360683 17.341119 17.561916 17.701074
0.542500 17.012412 17.230695 17.483505 17.448831 17.651289 17.782071
0.547500 17.127122 17.333406 17.585181 17.549811 17.740501 17.867478
0.552500 17.213131 17.450487 17.677518 17.644806 17.824630 17.946234
0.555000 17.273558 17.497535 17.719834 17.691960 17.869780 17.986508
0.557500 17.324481 17.549149 17.768038 17.740119 17.913709 18.034543
0.565000 17.467602 17.697384 17.895375 17.870288 18.035951 18.153402
0.572500 17.589415 17.830936 18.017147 17.994457 18.152702 18.264028
0.582500 17.728796 18.001762 18.185345 18.156112 18.306911 18.415753
0.587500 17.805118 18.098312 18.266443 18.236333 18.381328 18.485111
0.592500 17.886665 18.188154 18.345658 18.316372 18.454297 18.569339
0.597500 17.963995 18.277712 18.426730 18.397340 18.530408 18.648567
0.602500 18.046194 18.364434 18.505893 18.474880 18.606024 18.721473
0.605000 18.090798 18.403735 18.549861 18.517883 18.646571 18.765315
0.607500 18.130392 18.451222 18.592279 18.561757 18.689522 18.823598
0.612500 18.193677 18.523858 18.670501 18.644213 18.779181 18.930449
0.617500 18.268526 18.609706 18.748213 18.727113 18.864724 19.025298
0.622500 18.356478 18.687024 18.828187 18.809118 18.953930 19.119097
0.627500 18.426302 18.767026 18.907969 18.892833 19.039803 19.225080
0.632500 18.500030 18.841057 18.990569 18.974081 19.128392 19.312402
0.637500 18.570746 18.912502 19.064839 19.053483 19.216240 19.382071
0.645000 18.705435 19.019542 19.173134 19.166368 19.332549 19.511051
0.705000 19.530648 19.686260 19.866592 19.867889 20.046628 20.205755
0.725000 19.772361 19.953670 20.128777 20.131137 20.301884 20.476581
0.755000 20.176334 20.339948 20.504266 20.509666 20.687229 20.836038
0.805000 20.773595 20.962183 21.173314 21.172527 21.377745 21.583573
0.885000 21.488140 21.905737 22.330374 22.325842 22.689169 23.222271
0.965000 22.420730 22.948584 23.442708 23.490171 23.981123 24.969591
1.045000 23.429076 23.960258 24.573712 24.632068 25.223544 26.414213
1.125000 24.384713 25.021556 25.726102 25.855691 26.587125 28.213568
1.205000 25.501105 26.148626 26.955429 27.204230 28.147870 30.334630
1.285000 26.687160 27.409074 28.356381 28.692067 29.921752 33.107865
1.365000 27.688094 28.525533 29.692057 30.089730 31.603203 35.121041
1.445000 28.834879 29.716703 31.131603 31.631602 33.522778 37.169478
1.525000 29.997919 30.992871 32.733581 33.231497 35.529324 38.853639
