depth(m) lower_95(kyr) lower_68(kyr) median(kyr) mean(kyr) upper_68(kyr) upper_95(kyr)
0.005000 2.162719 3.219825 4.160193 4.237270 5.385499 6.281595
0.012500 2.294554 3.351720 4.288864 4.366582 5.497294 6.377282
0.017500 2.368431 3.434562 4.367752 4.451544 5.578725 6.456757
0.022500 2.506875 3.506235 4.467751 4.540665 5.645372 6.531760
0.027500 2.582863 3.619760 4.540772 4.630448 5.706225 6.607288
0.032500 2.674943 3.710860 4.624912 4.717774 5.782555 6.689928
0.037500 2.789198 3.807790 4.710902 4.804974 5.869980 6.757017
0.042500 2.873526 3.894846 4.814723 4.894208 5.954769 6.829644
0.047500 3.040482 3.969503 4.913837 4.986433 6.052978 6.893207
0.052500 3.123745 4.080282 5.023705 5.079412 6.150196 6.971030
0.057500 3.212542 4.181707 5.097038 5.172851 6.274177 7.064306
0.062500 3.403494 4.284588 5.204196 5.267711 6.371807 7.105208
0.067500 3.508114 4.405050 5.302409 5.362538 6.443529 7.172831
0.072500 3.606324 4.520241 5.390197 5.460816 6.544669 7.288812
0.077500 3.695569 4.648184 5.498808 5.557556 6.625097 7.373235
0.085000 3.949397 4.782710 5.686591 5.722804 6.759752 7.471635
0.092500 4.111788 4.982140 5.835435 5.889309 6.933474 7.622810
0.097500 4.183759 5.082438 5.955940 5.990151 7.020004 7.708542
0.102500 4.286493 5.163394 6.056183 6.091343 7.111661 7.812936
0.105000 4.328598 5.206825 6.103221 6.140930 7.155399 7.866733
0.107500 4.364215 5.257426 6.159568 6.192685 7.196208 7.896437
0.112500 4.571576 5.397923 6.315538 6.332609 7.296302 7.985251
0.117500 4.674894 5.533335 6.473873 6.470253 7.417963 8.121958
0.122500 4.803976 5.707384 6.642525 6.621445 7.526165 8.252968
0.127500 4.955379 5.841813 6.785311 6.765829 7.675729 8.407050
0.132500 5.113219 6.007502 6.930674 6.920231 7.836111 8.562929
0.137500 5.247705 6.180856 7.073462 7.071447 7.989430 8.725388
0.142500 5.423676 6.348898 7.223872 7.224941 8.126804 8.947422
0.147500 5.577747 6.493290 7.356650 7.387365 8.271375 9.101499
0.152500 5.728307 6.666035 7.533022 7.549036 8.431702 9.234796
0.157500 5.885251 6.831456 7.704161 7.714941 8.607128 9.462371
0.165000 6.241252 7.206692 8.110455 8.110638 9.043411 9.877112
0.172500 6.461381 7.501692 8.526986 8.480664 9.488819 10.186108
0.177500 6.610833 7.626891 8.670560 8.631701 9.658142 10.333517
0.182500 6.787019 7.727306 8.825798 8.779177 9.800948 10.477900
0.187500 6.934357 7.865255 8.948851 8.910607 9.917128 10.590837
0.192500 7.076219 7.996665 9.104551 9.049569 10.047416 10.712932
0.202500 7.645857 8.471872 9.530243 9.458336 10.369708 11.018859
0.207500 7.791380 8.631961 9.669589 9.595343 10.516289 11.181671
0.222500 9.110888 9.958581 10.704663 10.637304 11.276541 11.906604
0.232500 9.523139 10.486487 11.162613 11.106485 11.772033 12.256403
0.237500 9.629162 10.657029 11.306627 11.251136 11.903998 12.376641
0.245000 9.918135 10.948518 11.551679 11.497143 12.098757 12.539610
0.252500 10.284121 11.230108 11.797102 11.746243 12.327305 12.738357
0.257500 10.430960 11.358486 11.926941 11.873779 12.452477 12.872882
0.262500 10.533589 11.481040 12.030018 11.992394 12.589450 12.979680
0.267500 10.671697 11.617152 12.158275 12.121679 12.703598 13.092764
0.272500 10.826481 11.734253 12.274186 12.237912 12.820319 13.185500
0.277500 11.107416 11.858084 12.379176 12.347419 12.892250 13.295617
0.282500 11.264899 11.967899 12.481638 12.454321 12.991982 13.385364
0.287500 11.418552 12.078721 12.579287 12.562813 13.104158 13.465700
0.292500 11.615330 12.177586 12.680385 12.665724 13.215730 13.539137
0.297500 11.766726 12.285676 12.760196 12.764471 13.296220 13.617326
0.302500 11.881104 12.389768 12.857732 12.859294 13.374350 13.693867
0.307500 11.992056 12.502574 12.940716 12.953584 13.464657 13.764690
0.312500 12.117593 12.600769 13.037137 13.039830 13.534080 13.835534
0.317500 12.181747 12.694788 13.122307 13.122698 13.624861 13.915199
0.325000 12.381514 12.808495 13.243608 13.240354 13.716685 14.006892
0.332500 12.497134 12.932926 13.357570 13.352106 13.814117 14.113379
0.337500 12.566144 13.012557 13.435911 13.427344 13.877431 14.161065
0.342500 12.660256 13.082007 13.499866 13.501742 13.933616 14.240199
0.347500 12.726618 13.153616 13.577382 13.578491 14.000336 14.319705
0.352500 12.791429 13.214550 13.654959 13.651230 14.062658 14.403510
0.357500 12.894240 13.298011 13.735966 13.728145 14.114371 14.479465
0.362500 13.001567 13.401492 13.807106 13.805786 14.196698 14.559997
0.367500 13.082951 13.483493 13.889895 13.884882 14.269599 14.620483
0.372500 13.184093 13.574316 13.968366 13.968099 14.364144 14.701664
0.377500 13.260577 13.657638 14.061383 14.051661 14.443224 14.794025
0.382500 13.371190 13.741593 14.143144 14.134170 14.512135 14.884410
0.387500 13.462815 13.848217 14.228513 14.214538 14.584647 14.947634
0.392500 13.523571 13.947190 14.304078 14.296041 14.666518 15.041734
0.397500 13.611551 14.033760 14.373821 14.372624 14.742571 15.128648
0.405000 13.733532 14.154013 14.479867 14.484661 14.843474 15.253821
0.412500 13.846001 14.267747 14.577703 14.592268 14.959129 15.365707
0.417500 13.930131 14.353614 14.649125 14.666507 15.032933 15.445456
0.422500 14.026142 14.424810 14.728992 14.749392 15.108414 15.532470
0.427500 14.093314 14.516435 14.814979 14.837624 15.195806 15.622051
0.432500 14.211767 14.603195 14.914583 14.934359 15.287288 15.687019
0.437500 14.291268 14.700920 15.006635 15.031495 15.398068 15.834913
0.442500 14.424249 14.788141 15.108382 15.124652 15.489177 15.914064
0.447500 14.510733 14.868464 15.198869 15.213688 15.581061 16.029176
0.452500 14.623781 14.953963 15.289385 15.308993 15.689439 16.114911
0.457500 14.714657 15.036510 15.387818 15.405608 15.786291 16.215240
0.462500 14.831866 15.147806 15.494431 15.513021 15.884042 16.320680
0.467500 14.912302 15.252833 15.601082 15.618352 15.992979 16.421898
0.472500 15.009669 15.350943 15.697501 15.718343 16.086980 16.522279
0.477500 15.114079 15.461675 15.784121 15.809719 16.183562 16.611364
0.485000 15.225934 15.607214 15.906194 15.939044 16.306540 16.718549
0.492500 15.350185 15.741066 16.027997 16.076800 16.460101 16.880241
0.497500 15.436502 15.840891 16.118680 16.169053 16.557419 16.987012
0.502500 15.534573 15.918707 16.201980 16.256065 16.655128 17.064450
0.522500 15.817390 16.210281 16.476074 16.614910 17.076061 17.814942
0.527500 15.915520 16.292754 16.570277 16.705756 17.178988 17.932667
0.532500 16.020494 16.375343 16.650869 16.797133 17.276623 18.037073
0.537500 16.088384 16.461576 16.735672 16.884797 17.380074 18.154654
0.542500 16.190962 16.537292 16.819609 16.969840 17.465031 18.260793
0.547500 16.253303 16.608690 16.887391 17.049278 17.542730 18.380990
0.552500 16.324437 16.694591 16.960321 17.128234 17.625652 18.481616
0.557500 16.382232 16.763541 17.038512 17.209032 17.706596 18.552926
0.565000 16.494255 16.865638 17.160027 17.329216 17.826509 18.764798
0.572500 16.589969 16.956456 17.294923 17.454114 17.985556 18.973166
0.582500 16.705127 17.081713 17.455701 17.623555 18.222680 19.226464
0.587500 16.794609 17.147262 17.543396 17.704410 18.340421 19.323653
0.592500 16.867769 17.217538 17.630791 17.786232 18.417774 19.428932
0.597500 16.922687 17.280376 17.717660 17.865841 18.535624 19.535541
0.602500 16.959073 17.348654 17.793119 17.947613 18.648324 19.628327
0.607500 17.023013 17.431933 17.870594 18.030100 18.760779 19.725974
0.612500 17.081463 17.493564 17.950253 18.109628 18.874945 19.807337
0.617500 17.159054 17.575751 18.030101 18.189559 18.961963 19.897663
0.622500 17.250726 17.629246 18.105804 18.269232 19.053072 19.959840
0.627500 17.321849 17.715694 18.190069 18.350926 19.159623 20.032408
0.632500 17.413166 17.799810 18.277321 18.433552 19.237762 20.097080
0.637500 17.490109 17.888797 18.360168 18.517052 19.309125 20.165117
0.645000 17.609503 18.008609 18.492629 18.640546 19.435855 20.259956
0.725000 18.751965 19.307820 19.885056 19.885385 20.507749 20.940181
0.805000 20.262098 20.666892 21.121840 21.111567 21.533152 21.952862
0.885000 21.006009 21.543580 22.159248 22.198921 22.862189 23.737237
0.965000 21.713863 22.345200 23.136032 23.227547 24.199988 25.100133
1.045000 22.508869 23.279372 24.205761 24.285289 25.313475 26.189234
1.125000 23.480841 24.427193 25.319126 25.385456 26.425313 27.592927
1.205000 24.613813 25.486844 26.546789 26.614842 27.728873 29.241870
1.285000 25.803568 26.769473 27.952314 28.032181 29.285866 30.916069
1.365000 26.896045 27.930855 29.428544 29.413158 30.781772 32.631660
1.445000 27.934978 29.224492 30.747390 30.825742 32.269227 34.373261
1.525000 29.030649 30.541887 32.064339 32.305372 33.648908 39.144705
1.605000 30.450229 31.966274 33.437017 33.905050 35.429007 41.143217
1.685000 31.988548 33.270341 34.815551 35.626005 38.583704 42.762436
1.765000 33.256012 34.611605 36.512004 37.411165 40.999412 44.658007
1.845000 34.456476 36.012745 38.423213 39.307308 43.165040 46.555752
1.925000 35.592334 37.765367 40.547258 41.263635 45.136074 48.460183
2.005000 36.631712 39.752017 42.878919 43.257434 46.831694 50.385240
2.085000 37.795164 41.871353 45.033885 45.273181 48.747814 52.169038
2.165000 39.376228 43.742812 47.140674 47.071603 50.609137 53.901715
2.245000 41.417095 45.618458 49.338628 48.888347 52.174177 55.806529
2.325000 43.456100 47.503177 51.184741 50.750426 53.939755 57.079213
2.405000 44.688841 49.195162 52.827705 52.418936 55.552538 58.226401
2.485000 46.484547 50.915261 54.409404 54.072784 57.255781 59.437468
2.565000 48.330716 52.714669 55.796421 55.665180 58.927572 60.388701
2.645000 50.098049 54.440840 57.453846 57.182027 60.228686 61.273093
2.725000 51.428694 56.102205 59.382675 58.703927 61.291376 62.186082
2.805000 53.173680 57.671693 60.987510 60.095599 62.144078 63.028831
2.885000 54.918315 59.597738 62.073927 61.313571 62.983979 63.822123
2.965000 56.428958 61.179496 62.890803 62.315781 63.785482 64.578220
3.045000 57.826907 62.232753 63.569536 63.184078 64.480840 65.405860
3.125000 59.637432 62.940896 64.264630 63.981268 65.194007 66.044370
3.205000 61.714154 63.726342 64.959122 64.774752 65.922653 66.777343
3.285000 62.740878 64.466705 65.633155 65.511181 66.639972 67.463653
3.365000 63.733798 65.232092 66.372539 66.264737 67.376955 68.308167
3.445000 64.600131 65.920315 67.052666 67.026755 68.135331 69.142852
3.525000 65.580278 66.735396 67.849670 67.872416 69.000763 70.339119
3.605000 66.506591 67.656282 68.819238 68.904428 70.164558 71.621610
3.685000 67.445602 68.697244 70.053422 70.155333 71.749094 73.073566
3.765000 68.533530 69.865941 71.746130 71.754574 73.567974 74.778446
3.845000 70.025258 71.749335 74.199616 73.993859 76.070196 77.596850
3.925000 71.747801 74.114447 76.786649 76.376696 78.353861 79.650390
4.005000 73.906798 76.848868 78.966428 78.631248 80.393744 81.637404
4.085000 75.759485 79.246602 81.056067 80.752582 82.414358 83.376249
4.165000 77.851946 81.151898 82.612657 82.428853 83.873494 84.944490
4.245000 80.518582 82.548070 83.721407 83.707504 84.957788 86.671971
4.325000 82.198556 84.001563 85.046183 85.013631 85.985867 88.295426
4.405000 83.845819 85.440390 86.387299 86.467777 87.365657 90.452903
4.485000 85.574388 86.783168 87.915787 88.204027 89.988372 91.779907
4.565000 86.762929 88.009336 90.129902 89.983121 91.818388 92.992851
4.645000 87.719256 89.862755 91.832196 91.555605 93.133474 94.143627
4.725000 89.153737 91.444908 93.115060 92.865030 94.211869 95.202288
4.805000 91.264882 92.859103 94.267681 94.130810 95.301750 96.619773
4.885000 92.738509 94.377967 95.517702 95.523816 96.622374 98.123484
4.965000 94.538015 95.984907 97.039509 97.120948 98.335617 99.907984
5.045000 96.015568 97.251795 98.642565 98.636071 99.998287 101.518890
5.125000 97.319935 98.581089 100.201810 100.209668 101.772886 103.333162
5.205000 98.630266 100.270014 101.956060 101.970465 103.713248 105.345627
5.285000 100.202069 102.098740 104.102369 103.998812 105.864295 107.519754
5.365000 102.174866 104.392335 106.522053 106.316754 108.082539 109.561922
5.445000 104.106190 107.283196 109.247181 108.996411 110.733275 112.314994
5.525000 107.131756 110.329348 111.973365 111.811453 113.298232 114.989697
5.605000 111.773964 113.554976 115.120463 115.133281 116.839520 118.266666
5.685000 116.915748 118.744890 119.909062 119.922871 121.131429 122.824023
5.765000 120.742132 121.938031 123.340511 123.373278 124.756295 126.231215
5.845000 123.319210 124.598781 126.097432 126.012862 127.389548 128.563353
5.925000 125.750325 127.544023 128.754573 128.548927 129.570575 130.281342
6.005000 129.247634 130.698251 131.522491 131.424825 132.225372 132.892241
